3999.21017,0.04233
3998.49755,0.04263
3997.78494,0.04299
3997.07232,0.04313
3996.35970,0.04314
3995.64708,0.04322
3994.93447,0.04333
3994.22185,0.04338
3993.50923,0.04348
3992.79661,0.04368
3992.08400,0.04377
3991.37138,0.04358
3990.65876,0.04333
3989.94614,0.04341
3989.23352,0.04376
3988.52091,0.04400
3987.80829,0.04395
3987.09567,0.04389
3986.38305,0.04408
3985.67044,0.04441
3984.95782,0.04471
3984.24520,0.04508
3983.53258,0.04550
3982.81997,0.04563
3982.10735,0.04534
3981.39473,0.04503
3980.68211,0.04519
3979.96950,0.04589
3979.25688,0.04686
3978.54426,0.04763
3977.83164,0.04790
3977.11902,0.04777
3976.40641,0.04752
3975.69379,0.04733
3974.98117,0.04728
3974.26855,0.04747
3973.55594,0.04776
3972.84332,0.04782
3972.13070,0.04756
3971.41808,0.04742
3970.70547,0.04786
3969.99285,0.04874
3969.28023,0.04937
3968.56761,0.04923
3967.85500,0.04853
3967.14238,0.04798
3966.42976,0.04817
3965.71714,0.04906
3965.00453,0.05008
3964.29191,0.05069
3963.57929,0.05093
3962.86667,0.05125
3962.15405,0.05186
3961.44144,0.05241
3960.72882,0.05247
3960.01620,0.05222
3959.30358,0.05230
3958.59097,0.05298
3957.87835,0.05388
3957.16573,0.05453
3956.45311,0.05498
3955.74050,0.05543
3955.02788,0.05581
3954.31526,0.05598
3953.60264,0.05608
3952.89003,0.05637
3952.17741,0.05694
3951.46479,0.05778
3950.75217,0.05885
3950.03955,0.05998
3949.32694,0.06083
3948.61432,0.06113
3947.90170,0.06099
3947.18908,0.06084
3946.47647,0.06094
3945.76385,0.06132
3945.05123,0.06189
3944.33861,0.06258
3943.62600,0.06328
3942.91338,0.06383
3942.20076,0.06423
3941.48814,0.06461
3940.77553,0.06506
3940.06291,0.06570
3939.35029,0.06662
3938.63767,0.06784
3937.92506,0.06913
3937.21244,0.07011
3936.49982,0.07066
3935.78720,0.07124
3935.07458,0.07227
3934.36197,0.07357
3933.64935,0.07457
3932.93673,0.07498
3932.22411,0.07497
3931.51150,0.07503
3930.79888,0.07568
3930.08626,0.07704
3929.37364,0.07862
3928.66103,0.07976
3927.94841,0.08045
3927.23579,0.08127
3926.52317,0.08262
3925.81056,0.08431
3925.09794,0.08588
3924.38532,0.08719
3923.67270,0.08848
3922.96008,0.08992
3922.24747,0.09143
3921.53485,0.09299
3920.82223,0.09461
3920.10961,0.09609
3919.39700,0.09715
3918.68438,0.09777
3917.97176,0.09822
3917.25914,0.09885
3916.54653,0.10000
3915.83391,0.10179
3915.12129,0.10398
3914.40867,0.10617
3913.69606,0.10803
3912.98344,0.10960
3912.27082,0.11120
3911.55820,0.11309
3910.84558,0.11515
3910.13297,0.11695
3909.42035,0.11819
3908.70773,0.11907
3907.99511,0.12016
3907.28250,0.12190
3906.56988,0.12427
3905.85726,0.12695
3905.14464,0.12958
3904.43203,0.13164
3903.71941,0.13292
3903.00679,0.13388
3902.29417,0.13517
3901.58156,0.13680
3900.86894,0.13851
3900.15632,0.14036
3899.44370,0.14241
3898.73109,0.14438
3898.01847,0.14603
3897.30585,0.14739
3896.59323,0.14867
3895.88061,0.15008
3895.16800,0.15174
3894.45538,0.15338
3893.74276,0.15482
3893.03014,0.15616
3892.31753,0.15772
3891.60491,0.15962
3890.89229,0.16163
3890.17967,0.16339
3889.46706,0.16485
3888.75444,0.16625
3888.04182,0.16792
3887.32920,0.16999
3886.61659,0.17190
3885.90397,0.17268
3885.19135,0.17282
3884.47873,0.17368
3883.76611,0.17531
3883.05350,0.17683
3882.34088,0.17778
3881.62826,0.17875
3880.91564,0.18033
3880.20303,0.18197
3879.49041,0.18298
3878.77779,0.18354
3878.06517,0.18431
3877.35256,0.18557
3876.63994,0.18711
3875.92732,0.18850
3875.21470,0.18942
3874.50209,0.18999
3873.78947,0.19079
3873.07685,0.19194
3872.36423,0.19298
3871.65161,0.19369
3870.93900,0.19435
3870.22638,0.19535
3869.51376,0.19636
3868.80114,0.19692
3868.08853,0.19710
3867.37591,0.19707
3866.66329,0.19723
3865.95067,0.19796
3865.23806,0.19922
3864.52544,0.20035
3863.81282,0.20082
3863.10020,0.20081
3862.38759,0.20110
3861.67497,0.20246
3860.96235,0.20441
3860.24973,0.20597
3859.53712,0.20705
3858.82450,0.20821
3858.11188,0.20949
3857.39926,0.21015
3856.68664,0.20997
3855.97403,0.20966
3855.26141,0.20998
3854.54879,0.21069
3853.83617,0.21063
3853.12356,0.21016
3852.41094,0.21006
3851.69832,0.21010
3850.98570,0.20992
3850.27309,0.20988
3849.56047,0.21024
3848.84785,0.21074
3848.13523,0.21097
3847.42262,0.21103
3846.71000,0.21131
3845.99738,0.21198
3845.28476,0.21280
3844.57214,0.21328
3843.85953,0.21308
3843.14691,0.21242
3842.43429,0.21175
3841.72167,0.21124
3841.00906,0.21092
3840.29644,0.21089
3839.58382,0.21121
3838.87120,0.21173
3838.15859,0.21221
3837.44597,0.21217
3836.73335,0.21154
3836.02073,0.21103
3835.30812,0.21160
3834.59550,0.21316
3833.88288,0.21436
3833.17026,0.21442
3832.45764,0.21342
3831.74503,0.21194
3831.03241,0.21092
3830.31979,0.21080
3829.60717,0.21134
3828.89456,0.21206
3828.18194,0.21247
3827.46932,0.21221
3826.75670,0.21123
3826.04409,0.21014
3825.33147,0.20939
3824.61885,0.20880
3823.90623,0.20800
3823.19362,0.20705
3822.48100,0.20661
3821.76838,0.20714
3821.05576,0.20787
3820.34315,0.20774
3819.63053,0.20690
3818.91791,0.20578
3818.20529,0.20451
3817.49267,0.20311
3816.78006,0.20188
3816.06744,0.20136
3815.35482,0.20149
3814.64220,0.20162
3813.92959,0.20143
3813.21697,0.20092
3812.50435,0.20034
3811.79173,0.19983
3811.07912,0.19932
3810.36650,0.19878
3809.65388,0.19838
3808.94126,0.19833
3808.22865,0.19850
3807.51603,0.19834
3806.80341,0.19737
3806.09079,0.19617
3805.37817,0.19531
3804.66556,0.19494
3803.95294,0.19474
3803.24032,0.19426
3802.52770,0.19311
3801.81509,0.19111
3801.10247,0.18875
3800.38985,0.18696
3799.67723,0.18595
3798.96462,0.18574
3798.25200,0.18591
3797.53938,0.18575
3796.82676,0.18495
3796.11415,0.18403
3795.40153,0.18355
3794.68891,0.18347
3793.97629,0.18337
3793.26367,0.18297
3792.55106,0.18214
3791.83844,0.18110
3791.12582,0.18016
3790.41320,0.17936
3789.70059,0.17841
3788.98797,0.17708
3788.27535,0.17556
3787.56273,0.17437
3786.85012,0.17376
3786.13750,0.17367
3785.42488,0.17392
3784.71226,0.17416
3783.99965,0.17379
3783.28703,0.17260
3782.57441,0.17113
3781.86179,0.17018
3781.14918,0.16990
3780.43656,0.16957
3779.72394,0.16839
3779.01132,0.16672
3778.29870,0.16554
3777.58609,0.16495
3776.87347,0.16449
3776.16085,0.16396
3775.44823,0.16355
3774.73562,0.16337
3774.02300,0.16325
3773.31038,0.16305
3772.59776,0.16283
3771.88515,0.16279
3771.17253,0.16292
3770.45991,0.16277
3769.74729,0.16163
3769.03468,0.15990
3768.32206,0.15864
3767.60944,0.15837
3766.89682,0.15887
3766.18420,0.15930
3765.47159,0.15892
3764.75897,0.15798
3764.04635,0.15697
3763.33373,0.15589
3762.62112,0.15450
3761.90850,0.15275
3761.19588,0.15105
3760.48326,0.15024
3759.77065,0.15059
3759.05803,0.15120
3758.34541,0.15127
3757.63279,0.15082
3756.92018,0.15004
3756.20756,0.14912
3755.49494,0.14838
3754.78232,0.14796
3754.06971,0.14766
3753.35709,0.14713
3752.64447,0.14624
3751.93185,0.14549
3751.21923,0.14517
3750.50662,0.14478
3749.79400,0.14385
3749.08138,0.14284
3748.36876,0.14254
3747.65615,0.14288
3746.94353,0.14358
3746.23091,0.14457
3745.51829,0.14568
3744.80568,0.14548
3744.09306,0.14369
3743.38044,0.14213
3742.66782,0.14119
3741.95521,0.14059
3741.24259,0.14005
3740.52997,0.13934
3739.81735,0.13846
3739.10473,0.13772
3738.39212,0.13755
3737.67950,0.13805
3736.96688,0.13848
3736.25426,0.13777
3735.54165,0.13601
3734.82903,0.13466
3734.11641,0.13442
3733.40379,0.13471
3732.69118,0.13481
3731.97856,0.13431
3731.26594,0.13347
3730.55332,0.13269
3729.84071,0.13212
3729.12809,0.13180
3728.41547,0.13172
3727.70285,0.13188
3726.99023,0.13208
3726.27762,0.13202
3725.56500,0.13163
3724.85238,0.13104
3724.13976,0.13035
3723.42715,0.12955
3722.71453,0.12886
3722.00191,0.12851
3721.28929,0.12849
3720.57668,0.12859
3719.86406,0.12878
3719.15144,0.12886
3718.43882,0.12849
3717.72621,0.12764
3717.01359,0.12668
3716.30097,0.12604
3715.58835,0.12588
3714.87574,0.12605
3714.16312,0.12636
3713.45050,0.12671
3712.73788,0.12691
3712.02526,0.12660
3711.31265,0.12608
3710.60003,0.12589
3709.88741,0.12602
3709.17479,0.12594
3708.46218,0.12533
3707.74956,0.12446
3707.03694,0.12385
3706.32432,0.12374
3705.61171,0.12394
3704.89909,0.12404
3704.18647,0.12391
3703.47385,0.12363
3702.76124,0.12340
3702.04862,0.12330
3701.33600,0.12319
3700.62338,0.12277
3699.91076,0.12211
3699.19815,0.12164
3698.48553,0.12163
3697.77291,0.12196
3697.06029,0.12239
3696.34768,0.12283
3695.63506,0.12319
3694.92244,0.12341
3694.20982,0.12353
3693.49721,0.12356
3692.78459,0.12353
3692.07197,0.12353
3691.35935,0.12377
3690.64674,0.12438
3689.93412,0.12509
3689.22150,0.12519
3688.50888,0.12429
3687.79626,0.12340
3687.08365,0.12315
3686.37103,0.12320
3685.65841,0.12318
3684.94579,0.12322
3684.23318,0.12356
3683.52056,0.12420
3682.80794,0.12486
3682.09532,0.12529
3681.38271,0.12553
3680.67009,0.12574
3679.95747,0.12590
3679.24485,0.12597
3678.53224,0.12613
3677.81962,0.12649
3677.10700,0.12687
3676.39438,0.12703
3675.68177,0.12750
3674.96915,0.12876
3674.25653,0.13015
3673.54391,0.13099
3672.83129,0.13129
3672.11868,0.13157
3671.40606,0.13244
3670.69344,0.13379
3669.98082,0.13495
3669.26821,0.13568
3668.55559,0.13629
3667.84297,0.13688
3667.13035,0.13747
3666.41774,0.13817
3665.70512,0.13914
3664.99250,0.14035
3664.27988,0.14150
3663.56727,0.14224
3662.85465,0.14269
3662.14203,0.14349
3661.42941,0.14506
3660.71679,0.14706
3660.00418,0.14886
3659.29156,0.15022
3658.57894,0.15135
3657.86632,0.15258
3657.15371,0.15415
3656.44109,0.15573
3655.72847,0.15675
3655.01585,0.15736
3654.30324,0.15804
3653.59062,0.15885
3652.87800,0.15969
3652.16538,0.16083
3651.45277,0.16279
3650.74015,0.16532
3650.02753,0.16736
3649.31491,0.16846
3648.60229,0.16916
3647.88968,0.17012
3647.17706,0.17156
3646.46444,0.17318
3645.75182,0.17459
3645.03921,0.17581
3644.32659,0.17707
3643.61397,0.17859
3642.90135,0.18038
3642.18874,0.18233
3641.47612,0.18434
3640.76350,0.18645
3640.05088,0.18873
3639.33827,0.19106
3638.62565,0.19302
3637.91303,0.19424
3637.20041,0.19499
3636.48780,0.19597
3635.77518,0.19744
3635.06256,0.19911
3634.34994,0.20079
3633.63732,0.20266
3632.92471,0.20475
3632.21209,0.20684
3631.49947,0.20876
3630.78685,0.21051
3630.07424,0.21214
3629.36162,0.21382
3628.64900,0.21557
3627.93638,0.21729
3627.22377,0.21913
3626.51115,0.22132
3625.79853,0.22377
3625.08591,0.22590
3624.37330,0.22737
3623.66068,0.22841
3622.94806,0.22956
3622.23544,0.23114
3621.52282,0.23311
3620.81021,0.23534
3620.09759,0.23745
3619.38497,0.23914
3618.67235,0.24063
3617.95974,0.24246
3617.24712,0.24470
3616.53450,0.24685
3615.82188,0.24850
3615.10927,0.24977
3614.39665,0.25137
3613.68403,0.25387
3612.97141,0.25682
3612.25880,0.25917
3611.54618,0.26077
3610.83356,0.26230
3610.12094,0.26434
3609.40832,0.26678
3608.69571,0.26925
3607.98309,0.27176
3607.27047,0.27426
3606.55785,0.27631
3605.84524,0.27776
3605.13262,0.27902
3604.42000,0.28042
3603.70738,0.28193
3602.99477,0.28363
3602.28215,0.28575
3601.56953,0.28815
3600.85691,0.29048
3600.14430,0.29279
3599.43168,0.29552
3598.71906,0.29880
3598.00644,0.30197
3597.29383,0.30424
3596.58121,0.30559
3595.86859,0.30666
3595.15597,0.30792
3594.44335,0.30948
3593.73074,0.31151
3593.01812,0.31410
3592.30550,0.31683
3591.59288,0.31908
3590.88027,0.32069
3590.16765,0.32226
3589.45503,0.32462
3588.74241,0.32783
3588.02980,0.33096
3587.31718,0.33342
3586.60456,0.33542
3585.89194,0.33742
3585.17933,0.33967
3584.46671,0.34236
3583.75409,0.34535
3583.04147,0.34832
3582.32885,0.35102
3581.61624,0.35322
3580.90362,0.35486
3580.19100,0.35628
3579.47838,0.35811
3578.76577,0.36072
3578.05315,0.36397
3577.34053,0.36728
3576.62791,0.37002
3575.91530,0.37209
3575.20268,0.37395
3574.49006,0.37618
3573.77744,0.37916
3573.06483,0.38277
3572.35221,0.38635
3571.63959,0.38917
3570.92697,0.39097
3570.21435,0.39211
3569.50174,0.39358
3568.78912,0.39635
3568.07650,0.40053
3567.36388,0.40490
3566.65127,0.40857
3565.93865,0.41153
3565.22603,0.41397
3564.51341,0.41614
3563.80080,0.41827
3563.08818,0.42049
3562.37556,0.42299
3561.66294,0.42635
3560.95033,0.43086
3560.23771,0.43568
3559.52509,0.43955
3558.81247,0.44219
3558.09986,0.44437
3557.38724,0.44667
3556.67462,0.44914
3555.96200,0.45180
3555.24938,0.45475
3554.53677,0.45800
3553.82415,0.46141
3553.11153,0.46464
3552.39891,0.46743
3551.68630,0.47011
3550.97368,0.47328
3550.26106,0.47685
3549.54844,0.48013
3548.83583,0.48290
3548.12321,0.48582
3547.41059,0.48946
3546.69797,0.49358
3545.98536,0.49748
3545.27274,0.50094
3544.56012,0.50396
3543.84750,0.50636
3543.13488,0.50835
3542.42227,0.51106
3541.70965,0.51531
3540.99703,0.52051
3540.28441,0.52545
3539.57180,0.52956
3538.85918,0.53285
3538.14656,0.53532
3537.43394,0.53715
3536.72133,0.53921
3536.00871,0.54268
3535.29609,0.54769
3534.58347,0.55298
3533.87086,0.55722
3533.15824,0.56022
3532.44562,0.56280
3531.73300,0.56591
3531.02039,0.56974
3530.30777,0.57363
3529.59515,0.57684
3528.88253,0.57939
3528.16991,0.58187
3527.45730,0.58489
3526.74468,0.58874
3526.03206,0.59319
3525.31944,0.59746
3524.60683,0.60126
3523.89421,0.60523
3523.18159,0.60999
3522.46897,0.61507
3521.75636,0.61985
3521.04374,0.62444
3520.33112,0.62918
3519.61850,0.63374
3518.90589,0.63751
3518.19327,0.64064
3517.48065,0.64379
3516.76803,0.64711
3516.05541,0.65019
3515.34280,0.65289
3514.63018,0.65567
3513.91756,0.65903
3513.20494,0.66324
3512.49233,0.66841
3511.77971,0.67439
3511.06709,0.68069
3510.35447,0.68637
3509.64186,0.69041
3508.92924,0.69270
3508.21662,0.69441
3507.50400,0.69680
3506.79139,0.70026
3506.07877,0.70454
3505.36615,0.70905
3504.65353,0.71292
3503.94091,0.71559
3503.22830,0.71775
3502.51568,0.72098
3501.80306,0.72594
3501.09044,0.73149
3500.37783,0.73613
3499.66521,0.73971
3498.95259,0.74332
3498.23997,0.74772
3497.52736,0.75261
3496.81474,0.75728
3496.10212,0.76141
3495.38950,0.76516
3494.67689,0.76907
3493.96427,0.77370
3493.25165,0.77880
3492.53903,0.78335
3491.82642,0.78658
3491.11380,0.78874
3490.40118,0.79080
3489.68856,0.79366
3488.97594,0.79761
3488.26333,0.80216
3487.55071,0.80659
3486.83809,0.81084
3486.12547,0.81528
3485.41286,0.81991
3484.70024,0.82419
3483.98762,0.82772
3483.27500,0.83073
3482.56239,0.83375
3481.84977,0.83732
3481.13715,0.84186
3480.42453,0.84720
3479.71192,0.85249
3478.99930,0.85738
3478.28668,0.86272
3477.57406,0.86867
3476.86144,0.87303
3476.14883,0.87390
3475.43621,0.87327
3474.72359,0.87494
3474.01097,0.87959
3473.29836,0.88458
3472.58574,0.88810
3471.87312,0.89114
3471.16050,0.89531
3470.44789,0.90018
3469.73527,0.90377
3469.02265,0.90511
3468.31003,0.90543
3467.59742,0.90652
3466.88480,0.90925
3466.17218,0.91346
3465.45956,0.91826
3464.74694,0.92278
3464.03433,0.92744
3463.32171,0.93349
3462.60909,0.94059
3461.89647,0.94647
3461.18386,0.94972
3460.47124,0.95138
3459.75862,0.95334
3459.04600,0.95663
3458.33339,0.96122
3457.62077,0.96624
3456.90815,0.97033
3456.19553,0.97251
3455.48292,0.97319
3454.77030,0.97418
3454.05768,0.97710
3453.34506,0.98165
3452.63245,0.98636
3451.91983,0.99066
3451.20721,0.99443
3450.49459,0.99682
3449.78197,0.99720
3449.06936,0.99625
3448.35674,0.99499
3447.64412,0.99458
3446.93150,0.99643
3446.21889,1.00079
3445.50627,1.00633
3444.79365,1.01165
3444.08103,1.01600
3443.36842,1.01890
3442.65580,1.02105
3441.94318,1.02468
3441.23056,1.03055
3440.51795,1.03616
3439.80533,1.03824
3439.09271,1.03630
3438.38009,1.03317
3437.66747,1.03252
3436.95486,1.03622
3436.24224,1.04299
3435.52962,1.04945
3434.81700,1.05344
3434.10439,1.05607
3433.39177,1.05942
3432.67915,1.06328
3431.96653,1.06553
3431.25392,1.06568
3430.54130,1.06575
3429.82868,1.06728
3429.11606,1.06897
3428.40345,1.06823
3427.69083,1.06505
3426.97821,1.06261
3426.26559,1.06370
3425.55297,1.06779
3424.84036,1.07251
3424.12774,1.07668
3423.41512,1.08042
3422.70250,1.08307
3421.98989,1.08337
3421.27727,1.08200
3420.56465,1.08119
3419.85203,1.08165
3419.13942,1.08254
3418.42680,1.08378
3417.71418,1.08611
3417.00156,1.08836
3416.28895,1.08746
3415.57633,1.08279
3414.86371,1.07842
3414.15109,1.07888
3413.43848,1.08404
3412.72586,1.08967
3412.01324,1.09226
3411.30062,1.09220
3410.58800,1.09167
3409.87539,1.09150
3409.16277,1.09153
3408.45015,1.09197
3407.73753,1.09232
3407.02492,1.09061
3406.31230,1.08670
3405.59968,1.08468
3404.88706,1.08744
3404.17445,1.09122
3403.46183,1.09010
3402.74921,1.08393
3402.03659,1.07775
3401.32398,1.07583
3400.61136,1.07875
3399.89874,1.08444
3399.18612,1.08988
3398.47350,1.09308
3397.76089,1.09401
3397.04827,1.09316
3396.33565,1.09044
3395.62303,1.08680
3394.91042,1.08464
3394.19780,1.08497
3393.48518,1.08570
3392.77256,1.08479
3392.05995,1.08329
3391.34733,1.08295
3390.63471,1.08294
3389.92209,1.08148
3389.20948,1.07889
3388.49686,1.07644
3387.78424,1.07462
3387.07162,1.07404
3386.35900,1.07569
3385.64639,1.07859
3384.93377,1.07971
3384.22115,1.07753
3383.50853,1.07385
3382.79592,1.07162
3382.08330,1.07163
3381.37068,1.07131
3380.65806,1.06733
3379.94545,1.06046
3379.23283,1.05556
3378.52021,1.05536
3377.80759,1.05682
3377.09498,1.05526
3376.38236,1.05058
3375.66974,1.04700
3374.95712,1.04739
3374.24451,1.05012
3373.53189,1.05126
3372.81927,1.04900
3372.10665,1.04495
3371.39403,1.04139
3370.68142,1.03812
3369.96880,1.03310
3369.25618,1.02622
3368.54356,1.02061
3367.83095,1.01911
3367.11833,1.02074
3366.40571,1.02210
3365.69309,1.02123
3364.98048,1.01901
3364.26786,1.01696
3363.55524,1.01508
3362.84262,1.01256
3362.13001,1.00968
3361.41739,1.00771
3360.70477,1.00673
3359.99215,1.00507
3359.27953,1.00159
3358.56692,0.99697
3357.85430,0.99234
3357.14168,0.98821
3356.42906,0.98473
3355.71645,0.98140
3355.00383,0.97710
3354.29121,0.97156
3353.57859,0.96618
3352.86598,0.96283
3352.15336,0.96258
3351.44074,0.96501
3350.72812,0.96781
3350.01551,0.96810
3349.30289,0.96491
3348.59027,0.95970
3347.87765,0.95425
3347.16504,0.94896
3346.45242,0.94373
3345.73980,0.93881
3345.02718,0.93420
3344.31456,0.92913
3343.60195,0.92320
3342.88933,0.91756
3342.17671,0.91390
3341.46409,0.91220
3340.75148,0.91046
3340.03886,0.90712
3339.32624,0.90269
3338.61362,0.89819
3337.90101,0.89326
3337.18839,0.88715
3336.47577,0.88049
3335.76315,0.87507
3335.05054,0.87222
3334.33792,0.87190
3333.62530,0.87262
3332.91268,0.87239
3332.20006,0.87031
3331.48745,0.86687
3330.77483,0.86265
3330.06221,0.85821
3329.34959,0.85452
3328.63698,0.85196
3327.92436,0.84918
3327.21174,0.84451
3326.49912,0.83820
3325.78651,0.83179
3325.07389,0.82599
3324.36127,0.82024
3323.64865,0.81436
3322.93604,0.80945
3322.22342,0.80648
3321.51080,0.80461
3320.79818,0.80214
3320.08556,0.79868
3319.37295,0.79517
3318.66033,0.79194
3317.94771,0.78831
3317.23509,0.78378
3316.52248,0.77846
3315.80986,0.77282
3315.09724,0.76728
3314.38462,0.76228
3313.67201,0.75825
3312.95939,0.75547
3312.24677,0.75363
3311.53415,0.75185
3310.82154,0.74936
3310.10892,0.74612
3309.39630,0.74246
3308.68368,0.73833
3307.97107,0.73325
3307.25845,0.72727
3306.54583,0.72152
3305.83321,0.71737
3305.12059,0.71509
3304.40798,0.71355
3303.69536,0.71137
3302.98274,0.70799
3302.27012,0.70377
3301.55751,0.69933
3300.84489,0.69513
3300.13227,0.69137
3299.41965,0.68802
3298.70704,0.68475
3297.99442,0.68099
3297.28180,0.67638
3296.56918,0.67117
3295.85657,0.66576
3295.14395,0.66038
3294.43133,0.65564
3293.71871,0.65242
3293.00609,0.65064
3292.29348,0.64888
3291.58086,0.64595
3290.86824,0.64222
3290.15562,0.63862
3289.44301,0.63515
3288.73039,0.63119
3288.01777,0.62653
3287.30515,0.62165
3286.59254,0.61708
3285.87992,0.61288
3285.16730,0.60881
3284.45468,0.60481
3283.74207,0.60125
3283.02945,0.59842
3282.31683,0.59601
3281.60421,0.59348
3280.89159,0.59066
3280.17898,0.58757
3279.46636,0.58415
3278.75374,0.58034
3278.04112,0.57624
3277.32851,0.57205
3276.61589,0.56807
3275.90327,0.56430
3275.19065,0.56027
3274.47804,0.55573
3273.76542,0.55103
3273.05280,0.54652
3272.34018,0.54209
3271.62757,0.53794
3270.91495,0.53463
3270.20233,0.53220
3269.48971,0.52984
3268.77710,0.52694
3268.06448,0.52367
3267.35186,0.52050
3266.63924,0.51769
3265.92662,0.51531
3265.21401,0.51330
3264.50139,0.51119
3263.78877,0.50827
3263.07615,0.50443
3262.36354,0.50037
3261.65092,0.49664
3260.93830,0.49294
3260.22568,0.48899
3259.51307,0.48537
3258.80045,0.48280
3258.08783,0.48104
3257.37521,0.47907
3256.66260,0.47639
3255.94998,0.47340
3255.23736,0.47053
3254.52474,0.46753
3253.81212,0.46412
3253.09951,0.46057
3252.38689,0.45731
3251.67427,0.45440
3250.96165,0.45166
3250.24904,0.44893
3249.53642,0.44612
3248.82380,0.44332
3248.11118,0.44074
3247.39857,0.43842
3246.68595,0.43617
3245.97333,0.43383
3245.26071,0.43120
3244.54810,0.42825
3243.83548,0.42524
3243.12286,0.42242
3242.41024,0.41973
3241.69762,0.41710
3240.98501,0.41462
3240.27239,0.41234
3239.55977,0.41008
3238.84715,0.40758
3238.13454,0.40465
3237.42192,0.40148
3236.70930,0.39864
3235.99668,0.39658
3235.28407,0.39497
3234.57145,0.39296
3233.85883,0.39029
3233.14621,0.38755
3232.43360,0.38537
3231.72098,0.38362
3231.00836,0.38180
3230.29574,0.37961
3229.58313,0.37713
3228.87051,0.37456
3228.15789,0.37209
3227.44527,0.36978
3226.73265,0.36748
3226.02004,0.36499
3225.30742,0.36227
3224.59480,0.35960
3223.88218,0.35745
3223.16957,0.35595
3222.45695,0.35464
3221.74433,0.35317
3221.03171,0.35160
3220.31910,0.34997
3219.60648,0.34802
3218.89386,0.34563
3218.18124,0.34308
3217.46863,0.34066
3216.75601,0.33854
3216.04339,0.33673
3215.33077,0.33494
3214.61815,0.33287
3213.90554,0.33071
3213.19292,0.32888
3212.48030,0.32731
3211.76768,0.32556
3211.05507,0.32357
3210.34245,0.32174
3209.62983,0.32020
3208.91721,0.31852
3208.20460,0.31618
3207.49198,0.31344
3206.77936,0.31122
3206.06674,0.31023
3205.35413,0.31011
3204.64151,0.30975
3203.92889,0.30844
3203.21627,0.30633
3202.50365,0.30399
3201.79104,0.30169
3201.07842,0.29952
3200.36580,0.29757
3199.65318,0.29596
3198.94057,0.29476
3198.22795,0.29385
3197.51533,0.29290
3196.80271,0.29164
3196.09010,0.29016
3195.37748,0.28873
3194.66486,0.28737
3193.95224,0.28588
3193.23963,0.28433
3192.52701,0.28302
3191.81439,0.28202
3191.10177,0.28094
3190.38916,0.27932
3189.67654,0.27717
3188.96392,0.27492
3188.25130,0.27299
3187.53868,0.27155
3186.82607,0.27065
3186.11345,0.27015
3185.40083,0.26971
3184.68821,0.26888
3183.97560,0.26750
3183.26298,0.26590
3182.55036,0.26458
3181.83774,0.26359
3181.12513,0.26252
3180.41251,0.26117
3179.69989,0.25974
3178.98727,0.25840
3178.27466,0.25708
3177.56204,0.25576
3176.84942,0.25460
3176.13680,0.25370
3175.42418,0.25275
3174.71157,0.25135
3173.99895,0.24951
3173.28633,0.24767
3172.57371,0.24626
3171.86110,0.24538
3171.14848,0.24498
3170.43586,0.24500
3169.72324,0.24513
3169.01063,0.24478
3168.29801,0.24367
3167.58539,0.24204
3166.87277,0.24036
3166.16016,0.23888
3165.44754,0.23760
3164.73492,0.23646
3164.02230,0.23545
3163.30968,0.23461
3162.59707,0.23392
3161.88445,0.23327
3161.17183,0.23260
3160.45921,0.23188
3159.74660,0.23101
3159.03398,0.22992
3158.32136,0.22876
3157.60874,0.22786
3156.89613,0.22727
3156.18351,0.22665
3155.47089,0.22570
3154.75827,0.22461
3154.04566,0.22373
3153.33304,0.22312
3152.62042,0.22260
3151.90780,0.22204
3151.19519,0.22141
3150.48257,0.22067
3149.76995,0.21982
3149.05733,0.21892
3148.34471,0.21806
3147.63210,0.21723
3146.91948,0.21639
3146.20686,0.21552
3145.49424,0.21462
3144.78163,0.21360
3144.06901,0.21238
3143.35639,0.21100
3142.64377,0.20971
3141.93116,0.20886
3141.21854,0.20858
3140.50592,0.20857
3139.79330,0.20831
3139.08069,0.20767
3138.36807,0.20697
3137.65545,0.20650
3136.94283,0.20623
3136.23021,0.20596
3135.51760,0.20562
3134.80498,0.20510
3134.09236,0.20437
3133.37974,0.20359
3132.66713,0.20304
3131.95451,0.20266
3131.24189,0.20207
3130.52927,0.20107
3129.81666,0.19992
3129.10404,0.19904
3128.39142,0.19848
3127.67880,0.19806
3126.96619,0.19769
3126.25357,0.19743
3125.54095,0.19725
3124.82833,0.19699
3124.11572,0.19651
3123.40310,0.19580
3122.69048,0.19508
3121.97786,0.19474
3121.26524,0.19478
3120.55263,0.19466
3119.84001,0.19388
3119.12739,0.19255
3118.41477,0.19126
3117.70216,0.19045
3116.98954,0.19015
3116.27692,0.19015
3115.56430,0.19016
3114.85169,0.18998
3114.13907,0.18961
3113.42645,0.18921
3112.71383,0.18891
3112.00122,0.18868
3111.28860,0.18837
3110.57598,0.18801
3109.86336,0.18774
3109.15074,0.18759
3108.43813,0.18734
3107.72551,0.18686
3107.01289,0.18626
3106.30027,0.18563
3105.58766,0.18495
3104.87504,0.18427
3104.16242,0.18373
3103.44980,0.18334
3102.73719,0.18294
3102.02457,0.18251
3101.31195,0.18227
3100.59933,0.18220
3099.88672,0.18205
3099.17410,0.18180
3098.46148,0.18179
3097.74886,0.18205
3097.03624,0.18216
3096.32363,0.18181
3095.61101,0.18123
3094.89839,0.18088
3094.18577,0.18090
3093.47316,0.18108
3092.76054,0.18123
3092.04792,0.18131
3091.33530,0.18137
3090.62269,0.18125
3089.91007,0.18070
3089.19745,0.17978
3088.48483,0.17885
3087.77222,0.17819
3087.05960,0.17785
3086.34698,0.17770
3085.63436,0.17768
3084.92175,0.17772
3084.20913,0.17779
3083.49651,0.17784
3082.78389,0.17789
3082.07127,0.17787
3081.35866,0.17774
3080.64604,0.17757
3079.93342,0.17747
3079.22080,0.17748
3078.50819,0.17747
3077.79557,0.17725
3077.08295,0.17668
3076.37033,0.17590
3075.65772,0.17521
3074.94510,0.17484
3074.23248,0.17476
3073.51986,0.17483
3072.80725,0.17502
3072.09463,0.17536
3071.38201,0.17584
3070.66939,0.17636
3069.95677,0.17674
3069.24416,0.17687
3068.53154,0.17674
3067.81892,0.17649
3067.10630,0.17624
3066.39369,0.17594
3065.68107,0.17549
3064.96845,0.17496
3064.25583,0.17462
3063.54322,0.17474
3062.83060,0.17538
3062.11798,0.17618
3061.40536,0.17642
3060.69275,0.17574
3059.98013,0.17467
3059.26751,0.17407
3058.55489,0.17432
3057.84227,0.17509
3057.12966,0.17570
3056.41704,0.17568
3055.70442,0.17513
3054.99180,0.17452
3054.27919,0.17431
3053.56657,0.17470
3052.85395,0.17562
3052.14133,0.17656
3051.42872,0.17691
3050.71610,0.17664
3050.00348,0.17624
3049.29086,0.17596
3048.57825,0.17570
3047.86563,0.17543
3047.15301,0.17534
3046.44039,0.17553
3045.72778,0.17585
3045.01516,0.17613
3044.30254,0.17624
3043.58992,0.17619
3042.87730,0.17625
3042.16469,0.17668
3041.45207,0.17741
3040.73945,0.17800
3040.02683,0.17817
3039.31422,0.17812
3038.60160,0.17817
3037.88898,0.17826
3037.17636,0.17813
3036.46375,0.17774
3035.75113,0.17745
3035.03851,0.17751
3034.32589,0.17779
3033.61328,0.17796
3032.90066,0.17797
3032.18804,0.17820
3031.47542,0.17892
3030.76280,0.17985
3030.05019,0.18051
3029.33757,0.18078
3028.62495,0.18100
3027.91233,0.18135
3027.19972,0.18175
3026.48710,0.18213
3025.77448,0.18255
3025.06186,0.18307
3024.34925,0.18350
3023.63663,0.18351
3022.92401,0.18304
3022.21139,0.18251
3021.49878,0.18254
3020.78616,0.18329
3020.07354,0.18437
3019.36092,0.18536
3018.64830,0.18607
3017.93569,0.18657
3017.22307,0.18696
3016.51045,0.18727
3015.79783,0.18743
3015.08522,0.18739
3014.37260,0.18735
3013.65998,0.18770
3012.94736,0.18858
3012.23475,0.18950
3011.52213,0.18988
3010.80951,0.18968
3010.09689,0.18946
3009.38428,0.18976
3008.67166,0.19062
3007.95904,0.19165
3007.24642,0.19245
3006.53381,0.19294
3005.82119,0.19325
3005.10857,0.19349
3004.39595,0.19384
3003.68333,0.19442
3002.97072,0.19517
3002.25810,0.19583
3001.54548,0.19633
3000.83286,0.19683
3000.12025,0.19751
2999.40763,0.19823
2998.69501,0.19878
2997.98239,0.19921
2997.26978,0.19973
2996.55716,0.20036
2995.84454,0.20087
2995.13192,0.20130
2994.41931,0.20197
2993.70669,0.20294
2992.99407,0.20389
2992.28145,0.20455
2991.56883,0.20511
2990.85622,0.20588
2990.14360,0.20686
2989.43098,0.20766
2988.71836,0.20807
2988.00575,0.20842
2987.29313,0.20906
2986.58051,0.20999
2985.86789,0.21103
2985.15528,0.21209
2984.44266,0.21315
2983.73004,0.21416
2983.01742,0.21512
2982.30481,0.21608
2981.59219,0.21704
2980.87957,0.21802
2980.16695,0.21904
2979.45433,0.21999
2978.74172,0.22068
2978.02910,0.22113
2977.31648,0.22162
2976.60386,0.22234
2975.89125,0.22319
2975.17863,0.22402
2974.46601,0.22495
2973.75339,0.22614
2973.04078,0.22737
2972.32816,0.22818
2971.61554,0.22846
2970.90292,0.22855
2970.19031,0.22889
2969.47769,0.22964
2968.76507,0.23073
2968.05245,0.23197
2967.33984,0.23299
2966.62722,0.23354
2965.91460,0.23380
2965.20198,0.23412
2964.48936,0.23460
2963.77675,0.23499
2963.06413,0.23520
2962.35151,0.23549
2961.63889,0.23616
2960.92628,0.23715
2960.21366,0.23810
2959.50104,0.23870
2958.78842,0.23914
2958.07581,0.23979
2957.36319,0.24076
2956.65057,0.24182
2955.93795,0.24285
2955.22534,0.24392
2954.51272,0.24494
2953.80010,0.24566
2953.08748,0.24610
2952.37486,0.24655
2951.66225,0.24711
2950.94963,0.24763
2950.23701,0.24811
2949.52439,0.24871
2948.81178,0.24932
2948.09916,0.24971
2947.38654,0.24996
2946.67392,0.25033
2945.96131,0.25087
2945.24869,0.25141
2944.53607,0.25192
2943.82345,0.25247
2943.11084,0.25293
2942.39822,0.25304
2941.68560,0.25298
2940.97298,0.25330
2940.26037,0.25420
2939.54775,0.25510
2938.83513,0.25525
2938.12251,0.25474
2937.40989,0.25451
2936.69728,0.25525
2935.98466,0.25667
2935.27204,0.25787
2934.55942,0.25834
2933.84681,0.25821
2933.13419,0.25764
2932.42157,0.25670
2931.70895,0.25573
2930.99634,0.25532
2930.28372,0.25564
2929.57110,0.25615
2928.85848,0.25617
2928.14587,0.25571
2927.43325,0.25534
2926.72063,0.25537
2926.00801,0.25559
2925.29539,0.25571
2924.58278,0.25567
2923.87016,0.25546
2923.15754,0.25515
2922.44492,0.25497
2921.73231,0.25498
2921.01969,0.25476
2920.30707,0.25386
2919.59445,0.25257
2918.88184,0.25167
2918.16922,0.25155
2917.45660,0.25186
2916.74398,0.25219
2916.03137,0.25244
2915.31875,0.25260
2914.60613,0.25264
2913.89351,0.25269
2913.18089,0.25291
2912.46828,0.25318
2911.75566,0.25329
2911.04304,0.25329
2910.33042,0.25337
2909.61781,0.25341
2908.90519,0.25295
2908.19257,0.25195
2907.47995,0.25096
2906.76734,0.25050
2906.05472,0.25046
2905.34210,0.25037
2904.62948,0.25006
2903.91687,0.24974
2903.20425,0.24969
2902.49163,0.24989
2901.77901,0.25004
2901.06640,0.24994
2900.35378,0.24978
2899.64116,0.24974
2898.92854,0.24980
2898.21592,0.24978
2897.50331,0.24960
2896.79069,0.24935
2896.07807,0.24923
2895.36545,0.24941
2894.65284,0.24977
2893.94022,0.25001
2893.22760,0.24998
2892.51498,0.24977
2891.80237,0.24959
2891.08975,0.24943
2890.37713,0.24899
2889.66451,0.24810
2888.95190,0.24718
2888.23928,0.24674
2887.52666,0.24685
2886.81404,0.24718
2886.10142,0.24749
2885.38881,0.24769
2884.67619,0.24775
2883.96357,0.24772
2883.25095,0.24753
2882.53834,0.24702
2881.82572,0.24626
2881.11310,0.24561
2880.40048,0.24549
2879.68787,0.24587
2878.97525,0.24634
2878.26263,0.24632
2877.55001,0.24562
2876.83740,0.24470
2876.12478,0.24428
2875.41216,0.24457
2874.69954,0.24509
2873.98692,0.24527
2873.27431,0.24513
2872.56169,0.24504
2871.84907,0.24503
2871.13645,0.24473
2870.42384,0.24401
2869.71122,0.24314
2868.99860,0.24251
2868.28598,0.24227
2867.57337,0.24246
2866.86075,0.24299
2866.14813,0.24360
2865.43551,0.24395
2864.72290,0.24401
2864.01028,0.24395
2863.29766,0.24393
2862.58504,0.24396
2861.87243,0.24411
2861.15981,0.24454
2860.44719,0.24519
2859.73457,0.24577
2859.02195,0.24599
2858.30934,0.24592
2857.59672,0.24589
2856.88410,0.24622
2856.17148,0.24693
2855.45887,0.24773
2854.74625,0.24819
2854.03363,0.24821
2853.32101,0.24821
2852.60840,0.24868
2851.89578,0.24952
2851.18316,0.25020
2850.47054,0.25055
2849.75793,0.25086
2849.04531,0.25129
2848.33269,0.25160
2847.62007,0.25162
2846.90745,0.25153
2846.19484,0.25165
2845.48222,0.25207
2844.76960,0.25265
2844.05698,0.25312
2843.34437,0.25332
2842.63175,0.25351
2841.91913,0.25403
2841.20651,0.25489
2840.49390,0.25579
2839.78128,0.25656
2839.06866,0.25724
2838.35604,0.25790
2837.64343,0.25856
2836.93081,0.25924
2836.21819,0.25996
2835.50557,0.26060
2834.79295,0.26113
2834.08034,0.26171
2833.36772,0.26250
2832.65510,0.26344
2831.94248,0.26439
2831.22987,0.26539
2830.51725,0.26633
2829.80463,0.26695
2829.09201,0.26717
2828.37940,0.26737
2827.66678,0.26800
2826.95416,0.26903
2826.24154,0.27021
2825.52893,0.27150
2824.81631,0.27286
2824.10369,0.27399
2823.39107,0.27465
2822.67846,0.27515
2821.96584,0.27597
2821.25322,0.27717
2820.54060,0.27845
2819.82798,0.27963
2819.11537,0.28063
2818.40275,0.28151
2817.69013,0.28255
2816.97751,0.28407
2816.26490,0.28586
2815.55228,0.28724
2814.83966,0.28773
2814.12704,0.28777
2813.41443,0.28827
2812.70181,0.28958
2811.98919,0.29119
2811.27657,0.29251
2810.56396,0.29365
2809.85134,0.29503
2809.13872,0.29675
2808.42610,0.29857
2807.71348,0.30025
2807.00087,0.30179
2806.28825,0.30336
2805.57563,0.30508
2804.86301,0.30691
2804.15040,0.30858
2803.43778,0.30982
2802.72516,0.31066
2802.01254,0.31146
2801.29993,0.31256
2800.58731,0.31402
2799.87469,0.31583
2799.16207,0.31800
2798.44946,0.32044
2797.73684,0.32295
2797.02422,0.32528
2796.31160,0.32724
2795.59898,0.32895
2794.88637,0.33080
2794.17375,0.33311
2793.46113,0.33575
2792.74851,0.33834
2792.03590,0.34062
2791.32328,0.34278
2790.61066,0.34534
2789.89804,0.34847
2789.18543,0.35173
2788.47281,0.35458
2787.76019,0.35704
2787.04757,0.35962
2786.33496,0.36266
2785.62234,0.36616
2784.90972,0.37000
2784.19710,0.37408
2783.48449,0.37826
2782.77187,0.38228
2782.05925,0.38592
2781.34663,0.38927
2780.63401,0.39272
2779.92140,0.39671
2779.20878,0.40124
2778.49616,0.40583
2777.78354,0.41013
2777.07093,0.41440
2776.35831,0.41916
2775.64569,0.42456
2774.93307,0.43044
2774.22046,0.43662
2773.50784,0.44277
2772.79522,0.44853
2772.08260,0.45404
2771.36999,0.45998
2770.65737,0.46683
2769.94475,0.47430
2769.23213,0.48183
2768.51951,0.48923
2767.80690,0.49663
2767.09428,0.50411
2766.38166,0.51198
2765.66904,0.52072
2764.95643,0.53039
2764.24381,0.54052
2763.53119,0.55080
2762.81857,0.56127
2762.10596,0.57184
2761.39334,0.58234
2760.68072,0.59289
2759.96810,0.60373
2759.25549,0.61500
2758.54287,0.62690
2757.83025,0.63963
2757.11763,0.65314
2756.40501,0.66754
2755.69240,0.68307
2754.97978,0.69949
2754.26716,0.71598
2753.55454,0.73204
2752.84193,0.74805
2752.12931,0.76472
2751.41669,0.78242
2750.70407,0.80107
2749.99146,0.82049
2749.27884,0.84077
2748.56622,0.86213
2747.85360,0.88455
2747.14099,0.90779
2746.42837,0.93163
2745.71575,0.95588
2745.00313,0.98043
2744.29052,1.00578
2743.57790,1.03276
2742.86528,1.06134
2742.15266,1.09067
2741.44004,1.12074
2740.72743,1.15285
2740.01481,1.18766
2739.30219,1.22356
2738.58957,1.25817
2737.87696,1.29170
2737.16434,1.32743
2736.45172,1.36734
2735.73910,1.40852
2735.02649,1.44671
2734.31387,1.48261
2733.60125,1.52082
2732.88863,1.56519
2732.17602,1.61795
2731.46340,1.67902
2730.75078,1.74237
2730.03816,1.79799
2729.32554,1.84206
2728.61293,1.88040
2727.90031,1.92143
2727.18769,1.96957
2726.47507,2.02571
2725.76246,2.09110
2725.04984,2.17158
2724.33722,2.27017
2723.62460,2.38088
2722.91199,2.51060
2722.19937,2.69053
2721.48675,2.89128
2720.77413,2.95263
2720.06152,2.80512
2719.34890,2.73195
2718.63628,2.71884
2717.92366,2.67483
2717.21105,2.62814
2716.49843,2.63385
2715.78581,2.70463
2715.07319,2.81772
2714.36057,2.87857
2713.64796,2.80656
2712.93534,2.68557
2712.22272,2.59449
2711.51010,2.57676
2710.79749,2.65694
2710.08487,2.83543
2709.37225,2.98512
2708.65963,2.98484
2707.94702,2.94722
2707.23440,2.81657
2706.52178,2.66646
2705.80916,2.57578
2705.09655,2.58253
2704.38393,2.66201
2703.67131,2.73553
2702.95869,2.76841
2702.24607,2.72416
2701.53346,2.70693
2700.82084,2.78433
2700.10822,2.81918
2699.39560,2.81322
2698.68299,2.95949
2697.97037,3.13916
2697.25775,2.82776
2696.54513,2.70192
2695.83252,2.62521
2695.11990,2.60167
2694.40728,2.59122
2693.69466,2.59072
2692.98205,2.64262
2692.26943,2.72247
2691.55681,2.86558
2690.84419,3.14427
2690.13157,3.35632
2689.41896,3.00698
2688.70634,2.77370
2687.99372,2.59514
2687.28110,2.52999
2686.56849,2.55534
2685.85587,2.63663
2685.14325,2.70747
2684.43063,2.66293
2683.71802,2.64814
2683.00540,2.74257
2682.29278,2.82798
2681.58016,2.74033
2680.86755,2.66244
2680.15493,2.66518
2679.44231,2.73949
2678.72969,2.84785
2678.01708,2.92070
2677.30446,2.90033
2676.59184,2.90559
2675.87922,2.84575
2675.16660,2.80204
2674.45399,2.77084
2673.74137,2.74325
2673.02875,2.74692
2672.31613,2.77658
2671.60352,2.83881
2670.89090,2.90686
2670.17828,2.92352
2669.46566,2.83817
2668.75305,2.79293
2668.04043,2.78696
2667.32781,2.68019
2666.61519,2.59488
2665.90258,2.60342
2665.18996,2.68677
2664.47734,2.73038
2663.76472,2.74828
2663.05210,2.74906
2662.33949,2.77537
2661.62687,2.75296
2660.91425,2.79924
2660.20163,2.86037
2659.48902,2.88618
2658.77640,2.82306
2658.06378,2.70480
2657.35116,2.59933
2656.63855,2.52303
2655.92593,2.51486
2655.21331,2.61189
2654.50069,2.76842
2653.78808,2.80268
2653.07546,2.91335
2652.36284,2.96842
2651.65022,2.88485
2650.93760,2.88622
2650.22499,2.98851
2649.51237,2.99278
2648.79975,2.99570
2648.08713,2.82345
2647.37452,2.76395
2646.66190,2.85110
2645.94928,3.08695
2645.23666,2.94082
2644.52405,2.76699
2643.81143,2.75909
2643.09881,2.87470
2642.38619,2.87577
2641.67358,2.82073
2640.96096,2.84227
2640.24834,2.80523
2639.53572,2.81600
2638.82311,2.83891
2638.11049,2.80929
2637.39787,2.85079
2636.68525,2.72372
2635.97263,2.67213
2635.26002,2.67475
2634.54740,2.72559
2633.83478,2.76782
2633.12216,2.79535
2632.40955,2.85331
2631.69693,2.83083
2630.98431,2.78545
2630.27169,2.82928
2629.55908,2.88743
2628.84646,2.86524
2628.13384,2.88820
2627.42122,2.96334
2626.70861,2.99461
2625.99599,3.05435
2625.28337,2.88889
2624.57075,2.95872
2623.85813,3.12914
2623.14552,3.13342
2622.43290,3.08907
2621.72028,3.04942
2621.00766,3.07974
2620.29505,3.09637
2619.58243,3.04888
2618.86981,2.87385
2618.15719,2.82342
2617.44458,2.67670
2616.73196,2.57730
2616.01934,2.57134
2615.30672,2.60319
2614.59411,2.66254
2613.88149,2.78522
2613.16887,2.98854
2612.45625,3.24121
2611.74363,2.96917
2611.03102,2.79312
2610.31840,2.74568
2609.60578,2.72657
2608.89316,2.72779
2608.18055,2.74100
2607.46793,2.71484
2606.75531,2.67289
2606.04269,2.76339
2605.33008,3.21240
2604.61746,3.02122
2603.90484,2.82874
2603.19222,2.92379
2602.47961,2.99687
2601.76699,2.78835
2601.05437,2.58280
2600.34175,2.48565
2599.62914,2.47661
2598.91652,2.53817
2598.20390,2.63882
2597.49128,2.71266
2596.77866,2.72548
2596.06605,2.76833
2595.35343,2.90943
2594.64081,3.02066
2593.92819,3.02184
2593.21558,3.02921
2592.50296,3.00327
2591.79034,3.00557
2591.07772,3.12634
2590.36511,3.16977
2589.65249,3.00144
2588.93987,2.95385
2588.22725,3.03864
2587.51464,3.07846
2586.80202,3.01859
2586.08940,3.00571
2585.37678,3.07212
2584.66416,3.10832
2583.95155,3.13225
2583.23893,3.06030
2582.52631,2.93529
2581.81369,2.80809
2581.10108,2.76038
2580.38846,2.78528
2579.67584,2.78993
2578.96322,2.72170
2578.25061,2.70617
2577.53799,2.71270
2576.82537,2.78178
2576.11275,2.98109
2575.40014,2.90839
2574.68752,2.91347
2573.97490,2.93969
2573.26228,2.95317
2572.54966,2.94496
2571.83705,3.01060
2571.12443,3.20142
2570.41181,3.38945
2569.69919,3.31515
2568.98658,2.98444
2568.27396,2.74742
2567.56134,2.63696
2566.84872,2.60865
2566.13611,2.65803
2565.42349,2.73297
2564.71087,2.78132
2563.99825,2.87458
2563.28564,2.95702
2562.57302,2.91752
2561.86040,2.86307
2561.14778,2.82751
2560.43517,2.76162
2559.72255,2.63873
2559.00993,2.55695
2558.29731,2.54740
2557.58469,2.58845
2556.87208,2.64079
2556.15946,2.65145
2555.44684,2.62150
2554.73422,2.60374
2554.02161,2.63326
2553.30899,2.67854
2552.59637,2.69983
2551.88375,2.64600
2551.17114,2.60376
2550.45852,2.62343
2549.74590,2.66560
2549.03328,2.66874
2548.32067,2.65515
2547.60805,2.69679
2546.89543,2.76812
2546.18281,2.75294
2545.47019,2.75689
2544.75758,2.79989
2544.04496,2.75228
2543.33234,2.70053
2542.61972,2.69037
2541.90711,2.69710
2541.19449,2.72524
2540.48187,2.78717
2539.76925,2.85241
2539.05664,2.78102
2538.34402,2.66694
2537.63140,2.58504
2536.91878,2.55147
2536.20617,2.58392
2535.49355,2.67157
2534.78093,2.70864
2534.06831,2.69457
2533.35570,2.66998
2532.64308,2.62838
2531.93046,2.60134
2531.21784,2.61036
2530.50522,2.61247
2529.79261,2.62841
2529.07999,2.69976
2528.36737,2.78886
2527.65475,2.81911
2526.94214,2.73175
2526.22952,2.63768
2525.51690,2.59447
2524.80428,2.54198
2524.09167,2.49324
2523.37905,2.51291
2522.66643,2.64169
2521.95381,2.88532
2521.24120,2.87579
2520.52858,2.96025
2519.81596,3.37463
2519.10334,3.27782
2518.39072,3.02929
2517.67811,2.94478
2516.96549,2.88755
2516.25287,2.79326
2515.54025,2.72482
2514.82764,2.72073
2514.11502,2.76574
2513.40240,2.84613
2512.68978,2.83146
2511.97717,2.72890
2511.26455,2.63704
2510.55193,2.60342
2509.83931,2.58102
2509.12670,2.55946
2508.41408,2.56748
2507.70146,2.61307
2506.98884,2.64773
2506.27622,2.63772
2505.56361,2.61286
2504.85099,2.60627
2504.13837,2.62972
2503.42575,2.72744
2502.71314,2.87334
2502.00052,2.87273
2501.28790,2.90243
2500.57528,2.95015
2499.86267,2.92654
2499.15005,2.86405
2498.43743,2.78803
2497.72481,2.68411
2497.01220,2.57016
2496.29958,2.51214
2495.58696,2.54734
2494.87434,2.66206
2494.16173,2.78636
2493.44911,2.84716
2492.73649,2.86853
2492.02387,2.87862
2491.31125,2.84106
2490.59864,2.74536
2489.88602,2.67622
2489.17340,2.67060
2488.46078,2.69202
2487.74817,2.68613
2487.03555,2.67577
2486.32293,2.70523
2485.61031,2.79079
2484.89770,2.88375
2484.18508,2.85504
2483.47246,2.70765
2482.75984,2.56313
2482.04723,2.48843
2481.33461,2.50176
2480.62199,2.57425
2479.90937,2.61389
2479.19675,2.55779
2478.48414,2.52248
2477.77152,2.52179
2477.05890,2.52395
2476.34628,2.53820
2475.63367,2.57608
2474.92105,2.60004
2474.20843,2.60313
2473.49581,2.58524
2472.78320,2.56387
2472.07058,2.57809
2471.35796,2.65886
2470.64534,2.74669
2469.93273,2.76341
2469.22011,2.73217
2468.50749,2.61520
2467.79487,2.51892
2467.08225,2.49087
2466.36964,2.52489
2465.65702,2.60582
2464.94440,2.70351
2464.23178,2.76629
2463.51917,2.79583
2462.80655,2.76300
2462.09393,2.69726
2461.38131,2.71594
2460.66870,2.81356
2459.95608,2.81731
2459.24346,2.63481
2458.53084,2.44825
2457.81823,2.34401
2457.10561,2.33172
2456.39299,2.40511
2455.68037,2.54880
2454.96776,2.62026
2454.25514,2.59677
2453.54252,2.61709
2452.82990,2.67561
2452.11728,2.70230
2451.40467,2.64545
2450.69205,2.57150
2449.97943,2.51664
2449.26681,2.48084
2448.55420,2.46800
2447.84158,2.48226
2447.12896,2.49934
2446.41634,2.51675
2445.70373,2.58071
2444.99111,2.71332
2444.27849,2.84789
2443.56587,2.89347
2442.85326,2.83245
2442.14064,2.77125
2441.42802,2.74511
2440.71540,2.72188
2440.00278,2.70732
2439.29017,2.68691
2438.57755,2.62766
2437.86493,2.55455
2437.15231,2.50558
2436.43970,2.49636
2435.72708,2.55702
2435.01446,2.70381
2434.30184,2.85572
2433.58923,2.79045
2432.87661,2.67705
2432.16399,2.68729
2431.45137,2.80634
2430.73876,2.90084
2430.02614,2.90684
2429.31352,2.94010
2428.60090,2.98524
2427.88828,2.92044
2427.17567,2.76276
2426.46305,2.62834
2425.75043,2.54537
2425.03781,2.51476
2424.32520,2.53281
2423.61258,2.58733
2422.89996,2.64120
2422.18734,2.64779
2421.47473,2.61817
2420.76211,2.59830
2420.04949,2.58750
2419.33687,2.58842
2418.62426,2.62688
2417.91164,2.71216
2417.19902,2.81656
2416.48640,2.85189
2415.77379,2.81629
2415.06117,2.79282
2414.34855,2.78016
2413.63593,2.73011
2412.92331,2.66837
2412.21070,2.65745
2411.49808,2.66857
2410.78546,2.62940
2410.07284,2.55007
2409.36023,2.47540
2408.64761,2.46140
2407.93499,2.51371
2407.22237,2.58222
2406.50976,2.58355
2405.79714,2.52398
2405.08452,2.48110
2404.37190,2.48904
2403.65929,2.55058
2402.94667,2.63229
2402.23405,2.66676
2401.52143,2.64702
2400.80881,2.63150
2400.09620,2.62386
2399.38358,2.61913
2398.67096,2.62218
2397.95834,2.67836
2397.24573,2.77486
2396.53311,2.81846
2395.82049,2.74846
2395.10787,2.65689
2394.39526,2.62220
2393.68264,2.65314
2392.97002,2.69756
2392.25740,2.71789
2391.54479,2.72895
2390.83217,2.74290
2390.11955,2.69151
2389.40693,2.62759
2388.69431,2.60727
2387.98170,2.61304
2387.26908,2.61743
2386.55646,2.61206
2385.84384,2.59547
2385.13123,2.56590
2384.41861,2.53608
2383.70599,2.52573
2382.99337,2.51234
2382.28076,2.47165
2381.56814,2.45292
2380.85552,2.46764
2380.14290,2.42364
2379.43029,2.37945
2378.71767,2.39483
2378.00505,2.43670
2377.29243,2.44752
2376.57982,2.42841
2375.86720,2.41091
2375.15458,2.40604
2374.44196,2.42281
2373.72934,2.47892
2373.01673,2.54150
2372.30411,2.58567
2371.59149,2.59170
2370.87887,2.59452
2370.16626,2.52372
2369.45364,2.40563
2368.74102,2.36007
2368.02840,2.28239
2367.31579,2.25690
2366.60317,2.25067
2365.89055,2.23369
2365.17793,2.18901
2364.46532,2.18070
2363.75270,2.24797
2363.04008,2.34933
2362.32746,2.45632
2361.61484,2.43748
2360.90223,2.32763
2360.18961,2.21113
2359.47699,2.22795
2358.76437,2.35850
2358.05176,2.40764
2357.33914,2.57067
2356.62652,2.39452
2355.91390,2.20602
2355.20129,2.19512
2354.48867,2.31617
2353.77605,2.48172
2353.06343,2.58838
2352.35082,2.70392
2351.63820,2.59309
2350.92558,2.54534
2350.21296,2.56481
2349.50034,2.38428
2348.78773,2.28780
2348.07511,2.26515
2347.36249,2.28672
2346.64987,2.35437
2345.93726,2.43942
2345.22464,2.47303
2344.51202,2.56239
2343.79940,2.67816
2343.08679,2.60017
2342.37417,2.50862
2341.66155,2.42435
2340.94893,2.35482
2340.23632,2.29133
2339.52370,2.30327
2338.81108,2.43129
2338.09846,2.54246
2337.38585,2.43499
2336.67323,2.33416
2335.96061,2.29299
2335.24799,2.31328
2334.53537,2.38721
2333.82276,2.34874
2333.11014,2.33233
2332.39752,2.36987
2331.68490,2.44474
2330.97229,2.48480
2330.25967,2.44955
2329.54705,2.39832
2328.83443,2.38835
2328.12182,2.42225
2327.40920,2.47616
2326.69658,2.52155
2325.98396,2.58482
2325.27135,2.66255
2324.55873,2.64399
2323.84611,2.52813
2323.13349,2.46667
2322.42087,2.46477
2321.70826,2.44676
2320.99564,2.41859
2320.28302,2.44519
2319.57040,2.44936
2318.85779,2.37048
2318.14517,2.32914
2317.43255,2.38258
2316.71993,2.50515
2316.00732,2.56583
2315.29470,2.48923
2314.58208,2.39179
2313.86946,2.37368
2313.15685,2.46950
2312.44423,2.61549
2311.73161,2.58845
2311.01899,2.48850
2310.30638,2.45148
2309.59376,2.46375
2308.88114,2.47198
2308.16852,2.44436
2307.45590,2.40435
2306.74329,2.40595
2306.03067,2.48120
2305.31805,2.61200
2304.60543,2.73007
2303.89282,2.75932
2303.18020,2.72053
2302.46758,2.66638
2301.75496,2.60366
2301.04235,2.54956
2300.32973,2.51267
2299.61711,2.48523
2298.90449,2.48244
2298.19188,2.54496
2297.47926,2.70025
2296.76664,2.84262
2296.05402,2.77743
2295.34140,2.58983
2294.62879,2.48598
2293.91617,2.50157
2293.20355,2.57418
2292.49093,2.62319
2291.77832,2.61717
2291.06570,2.55618
2290.35308,2.47541
2289.64046,2.42367
2288.92785,2.42683
2288.21523,2.47148
2287.50261,2.50727
2286.78999,2.51210
2286.07738,2.50910
2285.36476,2.49795
2284.65214,2.47553
2283.93952,2.45621
2283.22690,2.45783
2282.51429,2.47322
2281.80167,2.46677
2281.08905,2.43547
2280.37643,2.40430
2279.66382,2.39010
2278.95120,2.38363
2278.23858,2.36075
2277.52596,2.33231
2276.81335,2.32591
2276.10073,2.34063
2275.38811,2.37512
2274.67549,2.40881
2273.96288,2.38598
2273.25026,2.33856
2272.53764,2.30462
2271.82502,2.28386
2271.11241,2.27885
2270.39979,2.29193
2269.68717,2.30087
2268.97455,2.28942
2268.26193,2.27235
2267.54932,2.26313
2266.83670,2.25665
2266.12408,2.24391
2265.41146,2.22910
2264.69885,2.22103
2263.98623,2.21292
2263.27361,2.18384
2262.56099,2.13763
2261.84838,2.10678
2261.13576,2.10815
2260.42314,2.12320
2259.71052,2.12055
2258.99791,2.10593
2258.28529,2.09122
2257.57267,2.07602
2256.86005,2.06719
2256.14743,2.07363
2255.43482,2.08835
2254.72220,2.09106
2254.00958,2.07470
2253.29696,2.05210
2252.58435,2.03097
2251.87173,2.00835
2251.15911,1.98611
2250.44649,1.97189
2249.73388,1.96558
2249.02126,1.95661
2248.30864,1.93675
2247.59602,1.90878
2246.88341,1.88325
2246.17079,1.87038
2245.45817,1.87149
2244.74555,1.87645
2244.03293,1.87425
2243.32032,1.86427
2242.60770,1.85213
2241.89508,1.84002
2241.18246,1.82500
2240.46985,1.80531
2239.75723,1.78336
2239.04461,1.76441
2238.33199,1.75087
2237.61938,1.73807
2236.90676,1.72143
2236.19414,1.70392
2235.48152,1.68901
2234.76891,1.67498
2234.05629,1.66134
2233.34367,1.65127
2232.63105,1.64500
2231.91844,1.63749
2231.20582,1.62486
2230.49320,1.60824
2229.78058,1.59052
2229.06796,1.57255
2228.35535,1.55437
2227.64273,1.53806
2226.93011,1.52612
2226.21749,1.51833
2225.50488,1.51285
2224.79226,1.50857
2224.07964,1.50395
2223.36702,1.49631
2222.65441,1.48433
2221.94179,1.46996
2221.22917,1.45648
2220.51655,1.44446
2219.80394,1.43083
2219.09132,1.41337
2218.37870,1.39451
2217.66608,1.37874
2216.95346,1.36813
2216.24085,1.36224
2215.52823,1.35958
2214.81561,1.35731
2214.10299,1.35200
2213.39038,1.34260
2212.67776,1.33104
2211.96514,1.31978
2211.25252,1.30971
2210.53991,1.30005
2209.82729,1.28991
2209.11467,1.27974
2208.40205,1.27049
2207.68944,1.26230
2206.97682,1.25450
2206.26420,1.24634
2205.55158,1.23683
2204.83896,1.22485
2204.12635,1.21066
2203.41373,1.19677
2202.70111,1.18624
2201.98849,1.17973
2201.27588,1.17463
2200.56326,1.16774
2199.85064,1.15864
2199.13802,1.14913
2198.42541,1.14015
2197.71279,1.13074
2197.00017,1.11988
2196.28755,1.10792
2195.57494,1.09609
2194.86232,1.08551
2194.14970,1.07666
2193.43708,1.06935
2192.72447,1.06262
2192.01185,1.05514
2191.29923,1.04636
2190.58661,1.03732
2189.87399,1.02953
2189.16138,1.02311
2188.44876,1.01700
2187.73614,1.01048
2187.02352,1.00347
2186.31091,0.99582
2185.59829,0.98714
2184.88567,0.97753
2184.17305,0.96785
2183.46044,0.95901
2182.74782,0.95140
2182.03520,0.94472
2181.32258,0.93835
2180.60997,0.93168
2179.89735,0.92449
2179.18473,0.91731
2178.47211,0.91104
2177.75949,0.90586
2177.04688,0.90068
2176.33426,0.89386
2175.62164,0.88487
2174.90902,0.87500
2174.19641,0.86612
2173.48379,0.85901
2172.77117,0.85284
2172.05855,0.84643
2171.34594,0.83964
2170.63332,0.83300
2169.92070,0.82680
2169.20808,0.82095
2168.49547,0.81555
2167.78285,0.81054
2167.07023,0.80529
2166.35761,0.79910
2165.64499,0.79211
2164.93238,0.78498
2164.21976,0.77824
2163.50714,0.77212
2162.79452,0.76645
2162.08191,0.76064
2161.36929,0.75425
2160.65667,0.74752
2159.94405,0.74112
2159.23144,0.73536
2158.51882,0.72994
2157.80620,0.72443
2157.09358,0.71885
2156.38097,0.71364
2155.66835,0.70913
2154.95573,0.70504
2154.24311,0.70067
2153.53050,0.69558
2152.81788,0.68995
2152.10526,0.68430
2151.39264,0.67903
2150.68002,0.67412
2149.96741,0.66927
2149.25479,0.66427
2148.54217,0.65913
2147.82955,0.65382
2147.11694,0.64817
2146.40432,0.64231
2145.69170,0.63676
2144.97908,0.63203
2144.26647,0.62800
2143.55385,0.62408
2142.84123,0.61976
2142.12861,0.61499
2141.41600,0.61010
2140.70338,0.60522
2139.99076,0.60026
2139.27814,0.59520
2138.56552,0.59033
2137.85291,0.58582
2137.14029,0.58154
2136.42767,0.57751
2135.71505,0.57393
2135.00244,0.57074
2134.28982,0.56744
2133.57720,0.56357
2132.86458,0.55906
2132.15197,0.55420
2131.43935,0.54931
2130.72673,0.54461
2130.01411,0.54019
2129.30150,0.53609
2128.58888,0.53240
2127.87626,0.52909
2127.16364,0.52583
2126.45103,0.52223
2125.73841,0.51825
2125.02579,0.51413
2124.31317,0.51007
2123.60055,0.50599
2122.88794,0.50189
2122.17532,0.49799
2121.46270,0.49442
2120.75008,0.49097
2120.03747,0.48740
2119.32485,0.48379
2118.61223,0.48046
2117.89961,0.47759
2117.18700,0.47496
2116.47438,0.47217
2115.76176,0.46891
2115.04914,0.46517
2114.33653,0.46116
2113.62391,0.45721
2112.91129,0.45375
2112.19867,0.45096
2111.48605,0.44851
2110.77344,0.44587
2110.06082,0.44287
2109.34820,0.43970
2108.63558,0.43652
2107.92297,0.43333
2107.21035,0.43028
2106.49773,0.42753
2105.78511,0.42495
2105.07250,0.42220
2104.35988,0.41917
2103.64726,0.41605
2102.93464,0.41304
2102.22203,0.41025
2101.50941,0.40766
2100.79679,0.40509
2100.08417,0.40225
2099.37155,0.39900
2098.65894,0.39560
2097.94632,0.39252
2097.23370,0.38994
2096.52108,0.38761
2095.80847,0.38526
2095.09585,0.38282
2094.38323,0.38042
2093.67061,0.37811
2092.95800,0.37593
2092.24538,0.37394
2091.53276,0.37194
2090.82014,0.36946
2090.10753,0.36630
2089.39491,0.36303
2088.68229,0.36032
2087.96967,0.35810
2087.25706,0.35573
2086.54444,0.35306
2085.83182,0.35063
2085.11920,0.34887
2084.40658,0.34752
2083.69397,0.34603
2082.98135,0.34410
2082.26873,0.34172
2081.55611,0.33893
2080.84350,0.33600
2080.13088,0.33351
2079.41826,0.33177
2078.70564,0.33047
2077.99303,0.32897
2077.28041,0.32700
2076.56779,0.32475
2075.85517,0.32258
2075.14256,0.32073
2074.42994,0.31911
2073.71732,0.31735
2073.00470,0.31521
2072.29208,0.31301
2071.57947,0.31121
2070.86685,0.30980
2070.15423,0.30831
2069.44161,0.30646
2068.72900,0.30445
2068.01638,0.30259
2067.30376,0.30094
2066.59114,0.29933
2065.87853,0.29768
2065.16591,0.29606
2064.45329,0.29444
2063.74067,0.29269
2063.02806,0.29085
2062.31544,0.28912
2061.60282,0.28757
2060.89020,0.28609
2060.17758,0.28459
2059.46497,0.28316
2058.75235,0.28176
2058.03973,0.28018
2057.32711,0.27844
2056.61450,0.27686
2055.90188,0.27573
2055.18926,0.27486
2054.47664,0.27375
2053.76403,0.27216
2053.05141,0.27035
2052.33879,0.26860
2051.62617,0.26693
2050.91356,0.26533
2050.20094,0.26398
2049.48832,0.26300
2048.77570,0.26225
2048.06309,0.26143
2047.35047,0.26034
2046.63785,0.25900
2045.92523,0.25758
2045.21261,0.25628
2044.50000,0.25512
2043.78738,0.25411
2043.07476,0.25320
2042.36214,0.25226
2041.64953,0.25110
2040.93691,0.24972
2040.22429,0.24822
2039.51167,0.24666
2038.79906,0.24506
2038.08644,0.24357
2037.37382,0.24246
2036.66120,0.24174
2035.94859,0.24098
2035.23597,0.23977
2034.52335,0.23824
2033.81073,0.23679
2033.09811,0.23565
2032.38550,0.23470
2031.67288,0.23383
2030.96026,0.23305
2030.24764,0.23233
2029.53503,0.23152
2028.82241,0.23047
2028.10979,0.22928
2027.39717,0.22825
2026.68456,0.22754
2025.97194,0.22684
2025.25932,0.22584
2024.54670,0.22461
2023.83409,0.22351
2023.12147,0.22267
2022.40885,0.22195
2021.69623,0.22117
2020.98361,0.22029
2020.27100,0.21936
2019.55838,0.21846
2018.84576,0.21764
2018.13314,0.21675
2017.42053,0.21573
2016.70791,0.21475
2015.99529,0.21396
2015.28267,0.21316
2014.57006,0.21217
2013.85744,0.21116
2013.14482,0.21039
2012.43220,0.20985
2011.71959,0.20933
2011.00697,0.20874
2010.29435,0.20807
2009.58173,0.20732
2008.86912,0.20652
2008.15650,0.20576
2007.44388,0.20511
2006.73126,0.20457
2006.01864,0.20399
2005.30603,0.20320
2004.59341,0.20225
2003.88079,0.20134
2003.16817,0.20059
2002.45556,0.19994
2001.74294,0.19921
2001.03032,0.19835
2000.31770,0.19747
1999.60509,0.19673
1998.89247,0.19619
1998.17985,0.19582
1997.46723,0.19549
1996.75462,0.19509
1996.04200,0.19460
1995.32938,0.19415
1994.61676,0.19381
1993.90414,0.19347
1993.19153,0.19294
1992.47891,0.19219
1991.76629,0.19126
1991.05367,0.19032
1990.34106,0.18953
1989.62844,0.18902
1988.91582,0.18875
1988.20320,0.18863
1987.49059,0.18852
1986.77797,0.18834
1986.06535,0.18802
1985.35273,0.18764
1984.64012,0.18725
1983.92750,0.18680
1983.21488,0.18620
1982.50226,0.18556
1981.78964,0.18504
1981.07703,0.18458
1980.36441,0.18408
1979.65179,0.18354
1978.93917,0.18311
1978.22656,0.18280
1977.51394,0.18248
1976.80132,0.18206
1976.08870,0.18153
1975.37609,0.18097
1974.66347,0.18048
1973.95085,0.18013
1973.23823,0.17989
1972.52562,0.17963
1971.81300,0.17933
1971.10038,0.17913
1970.38776,0.17899
1969.67515,0.17863
1968.96253,0.17793
1968.24991,0.17715
1967.53729,0.17665
1966.82467,0.17651
1966.11206,0.17657
1965.39944,0.17668
1964.68682,0.17667
1963.97420,0.17629
1963.26159,0.17548
1962.54897,0.17449
1961.83635,0.17377
1961.12373,0.17351
1960.41112,0.17352
1959.69850,0.17349
1958.98588,0.17332
1958.27326,0.17308
1957.56065,0.17277
1956.84803,0.17241
1956.13541,0.17214
1955.42279,0.17202
1954.71017,0.17193
1953.99756,0.17173
1953.28494,0.17143
1952.57232,0.17115
1951.85970,0.17096
1951.14709,0.17082
1950.43447,0.17070
1949.72185,0.17060
1949.00923,0.17060
1948.29662,0.17072
1947.58400,0.17078
1946.87138,0.17060
1946.15876,0.17025
1945.44615,0.16990
1944.73353,0.16968
1944.02091,0.16953
1943.30829,0.16936
1942.59567,0.16915
1941.88306,0.16902
1941.17044,0.16901
1940.45782,0.16904
1939.74520,0.16899
1939.03259,0.16879
1938.31997,0.16844
1937.60735,0.16806
1936.89473,0.16780
1936.18212,0.16762
1935.46950,0.16734
1934.75688,0.16690
1934.04426,0.16658
1933.33165,0.16668
1932.61903,0.16707
1931.90641,0.16739
1931.19379,0.16745
1930.48118,0.16734
1929.76856,0.16721
1929.05594,0.16714
1928.34332,0.16713
1927.63070,0.16709
1926.91809,0.16696
1926.20547,0.16676
1925.49285,0.16659
1924.78023,0.16656
1924.06762,0.16668
1923.35500,0.16686
1922.64238,0.16692
1921.92976,0.16685
1921.21715,0.16677
1920.50453,0.16669
1919.79191,0.16657
1919.07929,0.16646
1918.36668,0.16650
1917.65406,0.16673
1916.94144,0.16700
1916.22882,0.16725
1915.51620,0.16743
1914.80359,0.16742
1914.09097,0.16715
1913.37835,0.16682
1912.66573,0.16674
1911.95312,0.16698
1911.24050,0.16733
1910.52788,0.16750
1909.81526,0.16743
1909.10265,0.16730
1908.39003,0.16718
1907.67741,0.16709
1906.96479,0.16713
1906.25218,0.16748
1905.53956,0.16814
1904.82694,0.16885
1904.11432,0.16927
1903.40171,0.16924
1902.68909,0.16891
1901.97647,0.16853
1901.26385,0.16832
1900.55123,0.16840
1899.83862,0.16877
1899.12600,0.16921
1898.41338,0.16947
1897.70076,0.16953
1896.98815,0.16956
1896.27553,0.16962
1895.56291,0.16961
1894.85029,0.16961
1894.13768,0.16981
1893.42506,0.17020
1892.71244,0.17049
1891.99982,0.17055
1891.28721,0.17059
1890.57459,0.17094
1889.86197,0.17161
1889.14935,0.17218
1888.43673,0.17238
1887.72412,0.17237
1887.01150,0.17244
1886.29888,0.17259
1885.58626,0.17272
1884.87365,0.17278
1884.16103,0.17286
1883.44841,0.17304
1882.73579,0.17331
1882.02318,0.17357
1881.31056,0.17373
1880.59794,0.17383
1879.88532,0.17405
1879.17271,0.17449
1878.46009,0.17501
1877.74747,0.17553
1877.03485,0.17609
1876.32223,0.17666
1875.60962,0.17706
1874.89700,0.17715
1874.18438,0.17707
1873.47176,0.17698
1872.75915,0.17695
1872.04653,0.17702
1871.33391,0.17723
1870.62129,0.17759
1869.90868,0.17805
1869.19606,0.17851
1868.48344,0.17899
1867.77082,0.17948
1867.05821,0.17998
1866.34559,0.18040
1865.63297,0.18064
1864.92035,0.18070
1864.20774,0.18077
1863.49512,0.18098
1862.78250,0.18135
1862.06988,0.18186
1861.35726,0.18246
1860.64465,0.18297
1859.93203,0.18330
1859.21941,0.18359
1858.50679,0.18412
1857.79418,0.18496
1857.08156,0.18581
1856.36894,0.18634
1855.65632,0.18650
1854.94371,0.18653
1854.23109,0.18666
1853.51847,0.18697
1852.80585,0.18740
1852.09324,0.18785
1851.38062,0.18823
1850.66800,0.18855
1849.95538,0.18899
1849.24276,0.18968
1848.53015,0.19046
1847.81753,0.19098
1847.10491,0.19116
1846.39229,0.19130
1845.67968,0.19171
1844.96706,0.19249
1844.25444,0.19330
1843.54182,0.19372
1842.82921,0.19382
1842.11659,0.19391
1841.40397,0.19412
1840.69135,0.19449
1839.97874,0.19501
1839.26612,0.19561
1838.55350,0.19607
1837.84088,0.19629
1837.12826,0.19642
1836.41565,0.19668
1835.70303,0.19714
1834.99041,0.19777
1834.27779,0.19848
1833.56518,0.19915
1832.85256,0.19967
1832.13994,0.20003
1831.42732,0.20038
1830.71471,0.20077
1830.00209,0.20112
1829.28947,0.20145
1828.57685,0.20194
1827.86424,0.20269
1827.15162,0.20359
1826.43900,0.20438
1825.72638,0.20484
1825.01377,0.20506
1824.30115,0.20541
1823.58853,0.20605
1822.87591,0.20679
1822.16329,0.20737
1821.45068,0.20768
1820.73806,0.20786
1820.02544,0.20815
1819.31282,0.20872
1818.60021,0.20956
1817.88759,0.21048
1817.17497,0.21121
1816.46235,0.21163
1815.74974,0.21191
1815.03712,0.21233
1814.32450,0.21281
1813.61188,0.21314
1812.89927,0.21332
1812.18665,0.21355
1811.47403,0.21391
1810.76141,0.21440
1810.04879,0.21509
1809.33618,0.21590
1808.62356,0.21655
1807.91094,0.21692
1807.19832,0.21717
1806.48571,0.21753
1805.77309,0.21802
1805.06047,0.21854
1804.34785,0.21902
1803.63524,0.21949
1802.92262,0.22007
1802.21000,0.22093
1801.49738,0.22203
1800.78477,0.22303
1800.07215,0.22351
1799.35953,0.22340
1798.64691,0.22321
1797.93429,0.22347
1797.22168,0.22428
1796.50906,0.22521
1795.79644,0.22580
1795.08382,0.22593
1794.37121,0.22588
1793.65859,0.22610
1792.94597,0.22700
1792.23335,0.22847
1791.52074,0.22988
1790.80812,0.23086
1790.09550,0.23146
1789.38288,0.23173
1788.67027,0.23180
1787.95765,0.23181
1787.24503,0.23199
1786.53241,0.23258
1785.81980,0.23370
1785.10718,0.23507
1784.39456,0.23607
1783.68194,0.23633
1782.96932,0.23615
1782.25671,0.23614
1781.54409,0.23670
1780.83147,0.23774
1780.11885,0.23883
1779.40624,0.23963
1778.69362,0.24006
1777.98100,0.24022
1777.26838,0.24036
1776.55577,0.24084
1775.84315,0.24178
1775.13053,0.24290
1774.41791,0.24391
1773.70530,0.24485
1772.99268,0.24573
1772.28006,0.24629
1771.56744,0.24632
1770.85482,0.24623
1770.14221,0.24618
1769.42959,0.24622
1768.71697,0.24659
1768.00435,0.24744
1767.29174,0.24833
1766.57912,0.24893
1765.86650,0.24951
1765.15388,0.25039
1764.44127,0.25151
1763.72865,0.25269
1763.01603,0.25386
1762.30341,0.25496
1761.59080,0.25568
1760.87818,0.25583
1760.16556,0.25573
1759.45294,0.25589
1758.74032,0.25648
1758.02771,0.25731
1757.31509,0.25824
1756.60247,0.25926
1755.88985,0.26034
1755.17724,0.26132
1754.46462,0.26207
1753.75200,0.26239
1753.03938,0.26218
1752.32677,0.26186
1751.61415,0.26227
1750.90153,0.26350
1750.18891,0.26459
1749.47630,0.26509
1748.76368,0.26535
1748.05106,0.26576
1747.33844,0.26633
1746.62583,0.26701
1745.91321,0.26780
1745.20059,0.26872
1744.48797,0.26981
1743.77535,0.27110
1743.06274,0.27225
1742.35012,0.27291
1741.63750,0.27329
1740.92488,0.27396
1740.21227,0.27530
1739.49965,0.27689
1738.78703,0.27791
1738.07441,0.27827
1737.36180,0.27833
1736.64918,0.27841
1735.93656,0.27878
1735.22394,0.27981
1734.51133,0.28186
1733.79871,0.28384
1733.08609,0.28435
1732.37347,0.28390
1731.66085,0.28348
1730.94824,0.28359
1730.23562,0.28428
1729.52300,0.28523
1728.81038,0.28621
1728.09777,0.28727
1727.38515,0.28830
1726.67253,0.28908
1725.95991,0.28954
1725.24730,0.29004
1724.53468,0.29098
1723.82206,0.29233
1723.10944,0.29370
1722.39683,0.29475
1721.68421,0.29553
1720.97159,0.29627
1720.25897,0.29709
1719.54636,0.29815
1718.83374,0.29971
1718.12112,0.30148
1717.40850,0.30233
1716.69588,0.30234
1715.98327,0.30266
1715.27065,0.30396
1714.55803,0.30570
1713.84541,0.30693
1713.13280,0.30757
1712.42018,0.30820
1711.70756,0.30915
1710.99494,0.31027
1710.28233,0.31124
1709.56971,0.31189
1708.85709,0.31235
1708.14447,0.31275
1707.43186,0.31327
1706.71924,0.31426
1706.00662,0.31597
1705.29400,0.31822
1704.58138,0.32051
1703.86877,0.32233
1703.15615,0.32327
1702.44353,0.32309
1701.73091,0.32167
1701.01830,0.31971
1700.30568,0.32037
1699.59306,0.32408
1698.88044,0.32693
1698.16783,0.32847
1697.45521,0.32941
1696.74259,0.33050
1696.02997,0.33258
1695.31736,0.33521
1694.60474,0.33709
1693.89212,0.33838
1693.17950,0.33954
1692.46688,0.34074
1691.75427,0.34195
1691.04165,0.34327
1690.32903,0.34476
1689.61641,0.34624
1688.90380,0.34762
1688.19118,0.34910
1687.47856,0.35061
1686.76594,0.35189
1686.05333,0.35292
1685.34071,0.35436
1684.62809,0.35742
1683.91547,0.36142
1683.20286,0.36415
1682.49024,0.36571
1681.77762,0.36679
1681.06500,0.36805
1680.35239,0.36970
1679.63977,0.37165
1678.92715,0.37369
1678.21453,0.37559
1677.50191,0.37704
1676.78930,0.37787
1676.07668,0.37896
1675.36406,0.38179
1674.65144,0.38563
1673.93883,0.38850
1673.22621,0.39046
1672.51359,0.39234
1671.80097,0.39435
1671.08836,0.39601
1670.37574,0.39731
1669.66312,0.39902
1668.95050,0.40170
1668.23789,0.40450
1667.52527,0.40667
1666.81265,0.40848
1666.10003,0.41046
1665.38741,0.41270
1664.67480,0.41502
1663.96218,0.41751
1663.24956,0.42060
1662.53694,0.42430
1661.82433,0.42761
1661.11171,0.42993
1660.39909,0.43169
1659.68647,0.43361
1658.97386,0.43601
1658.26124,0.43863
1657.54862,0.44098
1656.83600,0.44268
1656.12339,0.44374
1655.41077,0.44454
1654.69815,0.44537
1653.98553,0.44684
1653.27291,0.44994
1652.56030,0.45397
1651.84768,0.45665
1651.13506,0.45804
1650.42244,0.45874
1649.70983,0.45913
1648.99721,0.45951
1648.28459,0.46029
1647.57197,0.46162
1646.85936,0.46354
1646.14674,0.46586
1645.43412,0.46784
1644.72150,0.46902
1644.00889,0.46972
1643.29627,0.47034
1642.58365,0.47102
1641.87103,0.47176
1641.15842,0.47256
1640.44580,0.47339
1639.73318,0.47416
1639.02056,0.47491
1638.30794,0.47575
1637.59533,0.47641
1636.88271,0.47661
1636.17009,0.47685
1635.45747,0.47855
1634.74486,0.48122
1634.03224,0.48306
1633.31962,0.48411
1632.60700,0.48508
1631.89439,0.48622
1631.18177,0.48731
1630.46915,0.48796
1629.75653,0.48803
1629.04392,0.48802
1628.33130,0.48887
1627.61868,0.49071
1626.90606,0.49230
1626.19344,0.49279
1625.48083,0.49257
1624.76821,0.49248
1624.05559,0.49274
1623.34297,0.49277
1622.63036,0.49207
1621.91774,0.49098
1621.20512,0.48997
1620.49250,0.48936
1619.77989,0.48919
1619.06727,0.48911
1618.35465,0.48866
1617.64203,0.48787
1616.92942,0.48772
1616.21680,0.48877
1615.50418,0.48992
1614.79156,0.49064
1614.07894,0.49125
1613.36633,0.49199
1612.65371,0.49260
1611.94109,0.49288
1611.22847,0.49301
1610.51586,0.49330
1609.80324,0.49392
1609.09062,0.49495
1608.37800,0.49626
1607.66539,0.49753
1606.95277,0.49860
1606.24015,0.49962
1605.52753,0.50069
1604.81492,0.50163
1604.10230,0.50234
1603.38968,0.50304
1602.67706,0.50394
1601.96445,0.50495
1601.25183,0.50582
1600.53921,0.50649
1599.82659,0.50711
1599.11397,0.50794
1598.40136,0.50903
1597.68874,0.51028
1596.97612,0.51160
1596.26350,0.51300
1595.55089,0.51450
1594.83827,0.51612
1594.12565,0.51788
1593.41303,0.51974
1592.70042,0.52152
1591.98780,0.52307
1591.27518,0.52453
1590.56256,0.52600
1589.84995,0.52733
1589.13733,0.52831
1588.42471,0.52907
1587.71209,0.52999
1586.99947,0.53129
1586.28686,0.53278
1585.57424,0.53417
1584.86162,0.53549
1584.14900,0.53701
1583.43639,0.53855
1582.72377,0.53966
1582.01115,0.54037
1581.29853,0.54112
1580.58592,0.54199
1579.87330,0.54265
1579.16068,0.54290
1578.44806,0.54271
1577.73545,0.54233
1577.02283,0.54296
1576.31021,0.54596
1575.59759,0.54947
1574.88497,0.55081
1574.17236,0.55063
1573.45974,0.55030
1572.74712,0.55035
1572.03450,0.55042
1571.32189,0.55021
1570.60927,0.55024
1569.89665,0.55130
1569.18403,0.55290
1568.47142,0.55364
1567.75880,0.55364
1567.04618,0.55348
1566.33356,0.55326
1565.62095,0.55302
1564.90833,0.55316
1564.19571,0.55391
1563.48309,0.55476
1562.77048,0.55502
1562.05786,0.55435
1561.34524,0.55301
1560.63262,0.55211
1559.92000,0.55366
1559.20739,0.55808
1558.49477,0.56247
1557.78215,0.56467
1557.06953,0.56494
1556.35692,0.56403
1555.64430,0.56277
1554.93168,0.56216
1554.21906,0.56249
1553.50645,0.56256
1552.79383,0.56181
1552.08121,0.56103
1551.36859,0.56128
1550.65598,0.56281
1549.94336,0.56454
1549.23074,0.56500
1548.51812,0.56431
1547.80550,0.56349
1547.09289,0.56296
1546.38027,0.56272
1545.66765,0.56296
1544.95503,0.56353
1544.24242,0.56350
1543.52980,0.56242
1542.81718,0.56112
1542.10456,0.56046
1541.39195,0.56007
1540.67933,0.55955
1539.96671,0.56039
1539.25409,0.56353
1538.54148,0.56593
1537.82886,0.56599
1537.11624,0.56478
1536.40362,0.56320
1535.69100,0.56152
1534.97839,0.55988
1534.26577,0.55895
1533.55315,0.55951
1532.84053,0.56081
1532.12792,0.56148
1531.41530,0.56139
1530.70268,0.56101
1529.99006,0.56054
1529.27745,0.55994
1528.56483,0.55915
1527.85221,0.55810
1527.13959,0.55701
1526.42698,0.55651
1525.71436,0.55689
1525.00174,0.55735
1524.28912,0.55708
1523.57651,0.55627
1522.86389,0.55562
1522.15127,0.55566
1521.43865,0.55641
1520.72603,0.55723
1520.01342,0.55759
1519.30080,0.55757
1518.58818,0.55766
1517.87556,0.55875
1517.16295,0.56118
1516.45033,0.56337
1515.73771,0.56414
1515.02509,0.56422
1514.31248,0.56434
1513.59986,0.56462
1512.88724,0.56502
1512.17462,0.56542
1511.46201,0.56538
1510.74939,0.56479
1510.03677,0.56399
1509.32415,0.56311
1508.61153,0.56197
1507.89892,0.56079
1507.18630,0.56136
1506.47368,0.56559
1505.76106,0.57104
1505.04845,0.57415
1504.33583,0.57515
1503.62321,0.57552
1502.91059,0.57629
1502.19798,0.57768
1501.48536,0.57900
1500.77274,0.57967
1500.06012,0.58030
1499.34751,0.58225
1498.63489,0.58528
1497.92227,0.58723
1497.20965,0.58802
1496.49704,0.59037
1495.78442,0.59539
1495.07180,0.60019
1494.35918,0.60311
1493.64656,0.60491
1492.93395,0.60635
1492.22133,0.60750
1491.50871,0.60842
1490.79609,0.60989
1490.08348,0.61312
1489.37086,0.61744
1488.65824,0.62136
1487.94562,0.62473
1487.23301,0.62803
1486.52039,0.63101
1485.80777,0.63338
1485.09515,0.63562
1484.38254,0.63825
1483.66992,0.64095
1482.95730,0.64302
1482.24468,0.64449
1481.53206,0.64627
1480.81945,0.64889
1480.10683,0.65203
1479.39421,0.65524
1478.68159,0.65810
1477.96898,0.66026
1477.25636,0.66182
1476.54374,0.66326
1475.83112,0.66453
1475.11851,0.66536
1474.40589,0.66625
1473.69327,0.66800
1472.98065,0.67093
1472.26804,0.67450
1471.55542,0.67774
1470.84280,0.67985
1470.13018,0.68073
1469.41756,0.68069
1468.70495,0.68010
1467.99233,0.67926
1467.27971,0.67844
1466.56709,0.67780
1465.85448,0.67775
1465.14186,0.67879
1464.42924,0.68020
1463.71662,0.68066
1463.00401,0.68014
1462.29139,0.67908
1461.57877,0.67747
1460.86615,0.67527
1460.15354,0.67276
1459.44092,0.67034
1458.72830,0.66826
1458.01568,0.66647
1457.30307,0.66496
1456.59045,0.66386
1455.87783,0.66278
1455.16521,0.66113
1454.45259,0.65886
1453.73998,0.65623
1453.02736,0.65362
1452.31474,0.65129
1451.60212,0.64914
1450.88951,0.64657
1450.17689,0.64318
1449.46427,0.63935
1448.75165,0.63585
1448.03904,0.63298
1447.32642,0.63030
1446.61380,0.62748
1445.90118,0.62460
1445.18857,0.62164
1444.47595,0.61836
1443.76333,0.61477
1443.05071,0.61112
1442.33809,0.60751
1441.62548,0.60397
1440.91286,0.60056
1440.20024,0.59695
1439.48762,0.59262
1438.77501,0.58765
1438.06239,0.58266
1437.34977,0.57844
1436.63715,0.57548
1435.92454,0.57288
1435.21192,0.56948
1434.49930,0.56541
1433.78668,0.56126
1433.07407,0.55744
1432.36145,0.55371
1431.64883,0.54966
1430.93621,0.54520
1430.22359,0.54061
1429.51098,0.53641
1428.79836,0.53283
1428.08574,0.52953
1427.37312,0.52607
1426.66051,0.52218
1425.94789,0.51787
1425.23527,0.51341
1424.52265,0.50915
1423.81004,0.50526
1423.09742,0.50183
1422.38480,0.49872
1421.67218,0.49564
1420.95957,0.49227
1420.24695,0.48844
1419.53433,0.48446
1418.82171,0.48068
1418.10910,0.47676
1417.39648,0.47239
1416.68386,0.46802
1415.97124,0.46437
1415.25862,0.46137
1414.54601,0.45854
1413.83339,0.45573
1413.12077,0.45295
1412.40815,0.45002
1411.69554,0.44671
1410.98292,0.44313
1410.27030,0.43967
1409.55768,0.43671
1408.84507,0.43423
1408.13245,0.43193
1407.41983,0.42977
1406.70721,0.42793
1405.99460,0.42634
1405.28198,0.42461
1404.56936,0.42237
1403.85674,0.41978
1403.14412,0.41738
1402.43151,0.41553
1401.71889,0.41410
1401.00627,0.41267
1400.29365,0.41105
1399.58104,0.40934
1398.86842,0.40748
1398.15580,0.40544
1397.44318,0.40348
1396.73057,0.40194
1396.01795,0.40084
1395.30533,0.39985
1394.59271,0.39855
1393.88010,0.39676
1393.16748,0.39461
1392.45486,0.39241
1391.74224,0.39054
1391.02962,0.38922
1390.31701,0.38830
1389.60439,0.38755
1388.89177,0.38683
1388.17915,0.38590
1387.46654,0.38449
1386.75392,0.38278
1386.04130,0.38111
1385.32868,0.37953
1384.61607,0.37807
1383.90345,0.37702
1383.19083,0.37643
1382.47821,0.37587
1381.76560,0.37497
1381.05298,0.37386
1380.34036,0.37285
1379.62774,0.37189
1378.91513,0.37072
1378.20251,0.36931
1377.48989,0.36792
1376.77727,0.36677
1376.06465,0.36597
1375.35204,0.36551
1374.63942,0.36518
1373.92680,0.36475
1373.21418,0.36419
1372.50157,0.36353
1371.78895,0.36288
1371.07633,0.36230
1370.36371,0.36170
1369.65110,0.36094
1368.93848,0.36009
1368.22586,0.35941
1367.51324,0.35898
1366.80063,0.35879
1366.08801,0.35875
1365.37539,0.35866
1364.66277,0.35850
1363.95015,0.35859
1363.23754,0.35902
1362.52492,0.35937
1361.81230,0.35926
1361.09968,0.35883
1360.38707,0.35834
1359.67445,0.35810
1358.96183,0.35831
1358.24921,0.35894
1357.53660,0.35969
1356.82398,0.36027
1356.11136,0.36065
1355.39874,0.36099
1354.68613,0.36144
1353.97351,0.36202
1353.26089,0.36251
1352.54827,0.36264
1351.83565,0.36250
1351.12304,0.36257
1350.41042,0.36321
1349.69780,0.36416
1348.98518,0.36497
1348.27257,0.36552
1347.55995,0.36613
1346.84733,0.36714
1346.13471,0.36851
1345.42210,0.36993
1344.70948,0.37108
1343.99686,0.37199
1343.28424,0.37289
1342.57163,0.37385
1341.85901,0.37469
1341.14639,0.37534
1340.43377,0.37601
1339.72116,0.37687
1339.00854,0.37779
1338.29592,0.37856
1337.58330,0.37917
1336.87068,0.37990
1336.15807,0.38091
1335.44545,0.38211
1334.73283,0.38330
1334.02021,0.38432
1333.30760,0.38508
1332.59498,0.38572
1331.88236,0.38664
1331.16974,0.38794
1330.45713,0.38937
1329.74451,0.39080
1329.03189,0.39246
1328.31927,0.39431
1327.60666,0.39582
1326.89404,0.39671
1326.18142,0.39745
1325.46880,0.39876
1324.75618,0.40081
1324.04357,0.40308
1323.33095,0.40504
1322.61833,0.40657
1321.90571,0.40793
1321.19310,0.40936
1320.48048,0.41102
1319.76786,0.41286
1319.05524,0.41462
1318.34263,0.41607
1317.63001,0.41749
1316.91739,0.41939
1316.20477,0.42183
1315.49216,0.42436
1314.77954,0.42673
1314.06692,0.42925
1313.35430,0.43228
1312.64169,0.43558
1311.92907,0.43849
1311.21645,0.44079
1310.50383,0.44285
1309.79121,0.44508
1309.07860,0.44763
1308.36598,0.45051
1307.65336,0.45371
1306.94074,0.45718
1306.22813,0.46088
1305.51551,0.46471
1304.80289,0.46839
1304.09027,0.47171
1303.37766,0.47486
1302.66504,0.47830
1301.95242,0.48217
1301.23980,0.48624
1300.52719,0.49029
1299.81457,0.49431
1299.10195,0.49844
1298.38933,0.50273
1297.67671,0.50705
1296.96410,0.51111
1296.25148,0.51500
1295.53886,0.51928
1294.82624,0.52417
1294.11363,0.52913
1293.40101,0.53367
1292.68839,0.53819
1291.97577,0.54331
1291.26316,0.54894
1290.55054,0.55454
1289.83792,0.55994
1289.12530,0.56547
1288.41269,0.57141
1287.70007,0.57780
1286.98745,0.58456
1286.27483,0.59159
1285.56221,0.59872
1284.84960,0.60580
1284.13698,0.61279
1283.42436,0.61974
1282.71174,0.62670
1281.99913,0.63358
1281.28651,0.64027
1280.57389,0.64707
1279.86127,0.65485
1279.14866,0.66412
1278.43604,0.67416
1277.72342,0.68369
1277.01080,0.69219
1276.29819,0.70026
1275.58557,0.70878
1274.87295,0.71828
1274.16033,0.72863
1273.44772,0.73935
1272.73510,0.75037
1272.02248,0.76207
1271.30986,0.77457
1270.59724,0.78769
1269.88463,0.80106
1269.17201,0.81411
1268.45939,0.82641
1267.74677,0.83829
1267.03416,0.85043
1266.32154,0.86307
1265.60892,0.87647
1264.89630,0.89115
1264.18369,0.90721
1263.47107,0.92441
1262.75845,0.94280
1262.04583,0.96219
1261.33322,0.98129
1260.62060,0.99882
1259.90798,1.01493
1259.19536,1.03074
1258.48274,1.04699
1257.77013,1.06408
1257.05751,1.08225
1256.34489,1.10086
1255.63227,1.11850
1254.91966,1.13553
1254.20704,1.15480
1253.49442,1.17751
1252.78180,1.19970
1252.06919,1.21630
1251.35657,1.22751
1250.64395,1.23812
1249.93133,1.25169
1249.21872,1.26837
1248.50610,1.28653
1247.79348,1.30337
1247.08086,1.31500
1246.36824,1.32048
1245.65563,1.32598
1244.94301,1.33891
1244.23039,1.35863
1243.51777,1.37673
1242.80516,1.38678
1242.09254,1.39008
1241.37992,1.39113
1240.66730,1.39316
1239.95469,1.39787
1239.24207,1.40494
1238.52945,1.41156
1237.81683,1.41491
1237.10422,1.41512
1236.39160,1.41461
1235.67898,1.41501
1234.96636,1.41563
1234.25375,1.41490
1233.54113,1.41297
1232.82851,1.41159
1232.11589,1.41087
1231.40327,1.40860
1230.69066,1.40481
1229.97804,1.40373
1229.26542,1.40865
1228.55280,1.41739
1227.84019,1.42310
1227.12757,1.41930
1226.41495,1.40726
1225.70233,1.39654
1224.98972,1.39442
1224.27710,1.39816
1223.56448,1.39957
1222.85186,1.39559
1222.13925,1.39103
1221.42663,1.39124
1220.71401,1.39686
1220.00139,1.40430
1219.28877,1.40917
1218.57616,1.41002
1217.86354,1.40874
1217.15092,1.40834
1216.43830,1.41054
1215.72569,1.41320
1215.01307,1.41133
1214.30045,1.40300
1213.58783,1.39292
1212.87522,1.38774
1212.16260,1.38936
1211.44998,1.39387
1210.73736,1.39595
1210.02475,1.39305
1209.31213,1.38623
1208.59951,1.37843
1207.88689,1.37247
1207.17427,1.36981
1206.46166,1.36912
1205.74904,1.36697
1205.03642,1.36112
1204.32380,1.35367
1203.61119,1.35060
1202.89857,1.35674
1202.18595,1.37000
1201.47333,1.38134
1200.76072,1.38254
1200.04810,1.37482
1199.33548,1.36634
1198.62286,1.36249
1197.91025,1.36192
1197.19763,1.36086
1196.48501,1.35891
1195.77239,1.35830
1195.05978,1.35865
1194.34716,1.35667
1193.63454,1.35122
1192.92192,1.34475
1192.20930,1.33996
1191.49669,1.33809
1190.78407,1.33945
1190.07145,1.34296
1189.35883,1.34613
1188.64622,1.34724
1187.93360,1.34625
1187.22098,1.34298
1186.50836,1.33778
1185.79575,1.33322
1185.08313,1.33144
1184.37051,1.33088
1183.65789,1.32880
1182.94528,1.32464
1182.23266,1.31915
1181.52004,1.31279
1180.80742,1.30654
1180.09480,1.30171
1179.38219,1.29817
1178.66957,1.29506
1177.95695,1.29248
1177.24433,1.29076
1176.53172,1.28857
1175.81910,1.28335
1175.10648,1.27445
1174.39386,1.26482
1173.68125,1.25768
1172.96863,1.25256
1172.25601,1.24612
1171.54339,1.23634
1170.83078,1.22435
1170.11816,1.21333
1169.40554,1.20647
1168.69292,1.20447
1167.98030,1.20499
1167.26769,1.20476
1166.55507,1.20090
1165.84245,1.19185
1165.12983,1.17957
1164.41722,1.16816
1163.70460,1.15934
1162.99198,1.15190
1162.27936,1.14497
1161.56675,1.13846
1160.85413,1.13114
1160.14151,1.12207
1159.42889,1.11303
1158.71628,1.10641
1158.00366,1.10190
1157.29104,1.09709
1156.57842,1.09065
1155.86581,1.08412
1155.15319,1.08002
1154.44057,1.07831
1153.72795,1.07544
1153.01533,1.06835
1152.30272,1.05820
1151.59010,1.04876
1150.87748,1.04220
1150.16486,1.03812
1149.45225,1.03579
1148.73963,1.03533
1148.02701,1.03625
1147.31439,1.03659
1146.60178,1.03432
1145.88916,1.02884
1145.17654,1.02126
1144.46392,1.01407
1143.75131,1.00982
1143.03869,1.00862
1142.32607,1.00738
1141.61345,1.00329
1140.90083,0.99709
1140.18822,0.99124
1139.47560,0.98661
1138.76298,0.98265
1138.05036,0.97904
1137.33775,0.97592
1136.62513,0.97379
1135.91251,0.97309
1135.19989,0.97311
1134.48728,0.97160
1133.77466,0.96649
1133.06204,0.95842
1132.34942,0.95060
1131.63681,0.94638
1130.92419,0.94666
1130.21157,0.94899
1129.49895,0.94967
1128.78633,0.94779
1128.07372,0.94571
1127.36110,0.94493
1126.64848,0.94410
1125.93586,0.94180
1125.22325,0.93832
1124.51063,0.93394
1123.79801,0.92851
1123.08539,0.92291
1122.37278,0.91860
1121.66016,0.91604
1120.94754,0.91459
1120.23492,0.91306
1119.52231,0.90992
1118.80969,0.90442
1118.09707,0.89781
1117.38445,0.89233
1116.67184,0.88956
1115.95922,0.89043
1115.24660,0.89499
1114.53398,0.90112
1113.82136,0.90491
1113.10875,0.90392
1112.39613,0.89896
1111.68351,0.89221
1110.97089,0.88587
1110.25828,0.88228
1109.54566,0.88287
1108.83304,0.88663
1108.12042,0.89092
1107.40781,0.89329
1106.69519,0.89238
1105.98257,0.88790
1105.26995,0.88112
1104.55734,0.87436
1103.84472,0.86972
1103.13210,0.86837
1102.41948,0.87030
1101.70686,0.87394
1100.99425,0.87649
1100.28163,0.87658
1099.56901,0.87573
1098.85639,0.87600
1098.14378,0.87754
1097.43116,0.87913
1096.71854,0.87931
1096.00592,0.87693
1095.29331,0.87263
1094.58069,0.86909
1093.86807,0.86846
1093.15545,0.87040
1092.44284,0.87320
1091.73022,0.87567
1091.01760,0.87735
1090.30498,0.87812
1089.59237,0.87730
1088.87975,0.87461
1088.16713,0.87251
1087.45451,0.87327
1086.74189,0.87514
1086.02928,0.87599
1085.31666,0.87675
1084.60404,0.87825
1083.89142,0.87882
1083.17881,0.87763
1082.46619,0.87697
1081.75357,0.87902
1081.04095,0.88277
1080.32834,0.88599
1079.61572,0.88837
1078.90310,0.89041
1078.19048,0.89114
1077.47787,0.88941
1076.76525,0.88667
1076.05263,0.88553
1075.34001,0.88616
1074.62739,0.88684
1073.91478,0.88716
1073.20216,0.88799
1072.48954,0.88949
1071.77692,0.89193
1071.06431,0.89661
1070.35169,0.90233
1069.63907,0.90435
1068.92645,0.90096
1068.21384,0.89681
1067.50122,0.89682
1066.78860,0.90029
1066.07598,0.90354
1065.36337,0.90600
1064.65075,0.90949
1063.93813,0.91403
1063.22551,0.91809
1062.51289,0.92150
1061.80028,0.92483
1061.08766,0.92770
1060.37504,0.92964
1059.66242,0.93032
1058.94981,0.93003
1058.23719,0.93096
1057.52457,0.93485
1056.81195,0.93959
1056.09934,0.94135
1055.38672,0.93991
1054.67410,0.93796
1053.96148,0.93662
1053.24887,0.93504
1052.53625,0.93256
1051.82363,0.93003
1051.11101,0.93010
1050.39840,0.93424
1049.68578,0.93864
1048.97316,0.93759
1048.26054,0.93207
1047.54792,0.92880
1046.83531,0.93070
1046.12269,0.93427
1045.41007,0.93608
1044.69745,0.93780
1043.98484,0.94341
1043.27222,0.95364
1042.55960,0.96480
1041.84698,0.97243
1041.13437,0.97461
1040.42175,0.97178
1039.70913,0.96531
1038.99651,0.95739
1038.28390,0.95086
1037.57128,0.94845
1036.85866,0.95169
1036.14604,0.96085
1035.43342,0.97435
1034.72081,0.98730
1034.00819,0.99370
1033.29557,0.99255
1032.58295,0.98844
1031.87034,0.98456
1031.15772,0.97997
1030.44510,0.97436
1029.73248,0.97047
1029.01987,0.97031
1028.30725,0.97216
1027.59463,0.97302
1026.88201,0.97411
1026.16940,0.98036
1025.45678,0.99092
1024.74416,0.99609
1024.03154,0.99110
1023.31892,0.98438
1022.60631,0.98415
1021.89369,0.98869
1021.18107,0.99227
1020.46845,0.99167
1019.75584,0.98725
1019.04322,0.98402
1018.33060,0.98805
1017.61798,0.99768
1016.90537,1.00398
1016.19275,1.00334
1015.48013,1.00229
1014.76751,1.00685
1014.05490,1.01404
1013.34228,1.01673
1012.62966,1.01463
1011.91704,1.01339
1011.20443,1.01446
1010.49181,1.01384
1009.77919,1.01021
1009.06657,1.00777
1008.35395,1.01127
1007.64134,1.02174
1006.92872,1.03432
1006.21610,1.04050
1005.50348,1.03822
1004.79087,1.03577
1004.07825,1.03773
1003.36563,1.03674
1002.65301,1.02845
1001.94040,1.02121
1001.22778,1.02299
1000.51516,1.03214
999.80254,1.04223
999.08993,1.04803
998.37731,1.04756
997.66469,1.04230
996.95207,1.03605
996.23945,1.03332
995.52684,1.03876
994.81422,1.05527
994.10160,1.07999
993.38898,1.10533
992.67637,1.12375
991.96375,1.12826
991.25113,1.11526
990.53851,1.09380
989.82590,1.07940
989.11328,1.07644
988.40066,1.07745
987.68804,1.07816
986.97543,1.08373
986.26281,1.09829
985.55019,1.11575
984.83757,1.12628
984.12495,1.12812
983.41234,1.12473
982.69972,1.12212
981.98710,1.13063
981.27448,1.15412
980.56187,1.17648
979.84925,1.17418
979.13663,1.14815
978.42401,1.12394
977.71140,1.12197
976.99878,1.13945
976.28616,1.15659
975.57354,1.15577
974.86093,1.13927
974.14831,1.12806
973.43569,1.13810
972.72307,1.16122
972.01046,1.17664
971.29784,1.18604
970.58522,1.20566
969.87260,1.22996
969.15998,1.23471
968.44737,1.21711
967.73475,1.20124
967.02213,1.19642
966.30951,1.18618
965.59690,1.16344
964.88428,1.14724
964.17166,1.15543
963.45904,1.18568
962.74643,1.21339
962.03381,1.21360
961.32119,1.19764
960.60857,1.18476
959.89596,1.17786
959.18334,1.17771
958.47072,1.18813
957.75810,1.21290
957.04548,1.24469
956.33287,1.26789
955.62025,1.27026
954.90763,1.25199
954.19501,1.23532
953.48240,1.24856
952.76978,1.29416
952.05716,1.32350
951.34454,1.28178
950.63193,1.19005
949.91931,1.11541
949.20669,1.10140
948.49407,1.15470
947.78146,1.27089
947.06884,1.41679
946.35622,1.46626
945.64360,1.43216
944.93098,1.41143
944.21837,1.40752
943.50575,1.35790
942.79313,1.33679
942.08051,1.33646
941.36790,1.31166
940.65528,1.23771
939.94266,1.17000
939.23004,1.16834
938.51743,1.23747
937.80481,1.31179
937.09219,1.30961
936.37957,1.26536
935.66696,1.21904
934.95434,1.19515
934.24172,1.17290
933.52910,1.21975
932.81649,1.42847
932.10387,1.61750
931.39125,1.41558
930.67863,1.40454
929.96601,1.50022
929.25340,1.52932
928.54078,1.55823
927.82816,1.70781
927.11554,1.67924
926.40293,1.44388
925.69031,1.28256
924.97769,1.23285
924.26507,1.26479
923.55246,1.26840
922.83984,1.23147
922.12722,1.26643
921.41460,1.37130
920.70199,1.43558
919.98937,1.39097
919.27675,1.23716
918.56413,1.08011
917.85151,1.01578
917.13890,1.05747
916.42628,1.19034
915.71366,1.37001
915.00104,1.36541
914.28843,1.29036
913.57581,1.17726
912.86319,1.11539
912.15057,1.14730
911.43796,1.06113
910.72534,0.97901
910.01272,0.90459
909.30010,0.88805
908.58749,0.96746
907.87487,1.19250
907.16225,1.21215
906.44963,1.15971
905.73702,1.15018
905.02440,1.23351
904.31178,1.39032
903.59916,1.30105
902.88654,1.19433
902.17393,1.05685
901.46131,0.98517
900.74869,1.00832
900.03607,1.09387
899.32346,1.09667
