3999.21017,0.03684
3998.49755,0.03679
3997.78494,0.03677
3997.07232,0.03682
3996.35970,0.03693
3995.64708,0.03707
3994.93447,0.03718
3994.22185,0.03719
3993.50923,0.03710
3992.79661,0.03693
3992.08400,0.03669
3991.37138,0.03643
3990.65876,0.03618
3989.94614,0.03596
3989.23352,0.03578
3988.52091,0.03563
3987.80829,0.03547
3987.09567,0.03531
3986.38305,0.03524
3985.67044,0.03534
3984.95782,0.03564
3984.24520,0.03612
3983.53258,0.03668
3982.81997,0.03722
3982.10735,0.03761
3981.39473,0.03778
3980.68211,0.03777
3979.96950,0.03765
3979.25688,0.03758
3978.54426,0.03767
3977.83164,0.03796
3977.11902,0.03843
3976.40641,0.03904
3975.69379,0.03972
3974.98117,0.04038
3974.26855,0.04093
3973.55594,0.04129
3972.84332,0.04141
3972.13070,0.04131
3971.41808,0.04105
3970.70547,0.04071
3969.99285,0.04042
3969.28023,0.04028
3968.56761,0.04034
3967.85500,0.04065
3967.14238,0.04123
3966.42976,0.04207
3965.71714,0.04312
3965.00453,0.04426
3964.29191,0.04529
3963.57929,0.04606
3962.86667,0.04649
3962.15405,0.04661
3961.44144,0.04652
3960.72882,0.04637
3960.01620,0.04627
3959.30358,0.04634
3958.59097,0.04662
3957.87835,0.04710
3957.16573,0.04769
3956.45311,0.04832
3955.74050,0.04892
3955.02788,0.04947
3954.31526,0.04998
3953.60264,0.05047
3952.89003,0.05097
3952.17741,0.05150
3951.46479,0.05206
3950.75217,0.05257
3950.03955,0.05296
3949.32694,0.05314
3948.61432,0.05310
3947.90170,0.05287
3947.18908,0.05254
3946.47647,0.05224
3945.76385,0.05209
3945.05123,0.05225
3944.33861,0.05287
3943.62600,0.05396
3942.91338,0.05540
3942.20076,0.05697
3941.48814,0.05850
3940.77553,0.05990
3940.06291,0.06116
3939.35029,0.06231
3938.63767,0.06334
3937.92506,0.06425
3937.21244,0.06501
3936.49982,0.06557
3935.78720,0.06591
3935.07458,0.06604
3934.36197,0.06601
3933.64935,0.06594
3932.93673,0.06596
3932.22411,0.06623
3931.51150,0.06688
3930.79888,0.06796
3930.08626,0.06945
3929.37364,0.07124
3928.66103,0.07318
3927.94841,0.07520
3927.23579,0.07725
3926.52317,0.07927
3925.81056,0.08115
3925.09794,0.08275
3924.38532,0.08404
3923.67270,0.08509
3922.96008,0.08609
3922.24747,0.08716
3921.53485,0.08833
3920.82223,0.08959
3920.10961,0.09094
3919.39700,0.09238
3918.68438,0.09399
3917.97176,0.09584
3917.25914,0.09797
3916.54653,0.10032
3915.83391,0.10277
3915.12129,0.10518
3914.40867,0.10744
3913.69606,0.10949
3912.98344,0.11131
3912.27082,0.11291
3911.55820,0.11433
3910.84558,0.11562
3910.13297,0.11683
3909.42035,0.11802
3908.70773,0.11929
3907.99511,0.12072
3907.28250,0.12233
3906.56988,0.12406
3905.85726,0.12577
3905.14464,0.12738
3904.43203,0.12890
3903.71941,0.13044
3903.00679,0.13213
3902.29417,0.13403
3901.58156,0.13617
3900.86894,0.13851
3900.15632,0.14099
3899.44370,0.14348
3898.73109,0.14585
3898.01847,0.14800
3897.30585,0.14989
3896.59323,0.15156
3895.88061,0.15305
3895.16800,0.15436
3894.45538,0.15549
3893.74276,0.15645
3893.03014,0.15736
3892.31753,0.15836
3891.60491,0.15953
3890.89229,0.16087
3890.17967,0.16228
3889.46706,0.16374
3888.75444,0.16525
3888.04182,0.16687
3887.32920,0.16863
3886.61659,0.17045
3885.90397,0.17221
3885.19135,0.17374
3884.47873,0.17501
3883.76611,0.17613
3883.05350,0.17729
3882.34088,0.17865
3881.62826,0.18028
3880.91564,0.18210
3880.20303,0.18396
3879.49041,0.18567
3878.77779,0.18713
3878.06517,0.18833
3877.35256,0.18933
3876.63994,0.19021
3875.92732,0.19105
3875.21470,0.19194
3874.50209,0.19292
3873.78947,0.19396
3873.07685,0.19501
3872.36423,0.19601
3871.65161,0.19693
3870.93900,0.19777
3870.22638,0.19852
3869.51376,0.19913
3868.80114,0.19959
3868.08853,0.19999
3867.37591,0.20052
3866.66329,0.20137
3865.95067,0.20259
3865.23806,0.20403
3864.52544,0.20538
3863.81282,0.20637
3863.10020,0.20694
3862.38759,0.20720
3861.67497,0.20732
3860.96235,0.20740
3860.24973,0.20745
3859.53712,0.20749
3858.82450,0.20763
3858.11188,0.20805
3857.39926,0.20889
3856.68664,0.21019
3855.97403,0.21193
3855.26141,0.21397
3854.54879,0.21613
3853.83617,0.21819
3853.12356,0.21989
3852.41094,0.22111
3851.69832,0.22179
3850.98570,0.22193
3850.27309,0.22155
3849.56047,0.22071
3848.84785,0.21956
3848.13523,0.21830
3847.42262,0.21715
3846.71000,0.21623
3845.99738,0.21556
3845.28476,0.21511
3844.57214,0.21484
3843.85953,0.21475
3843.14691,0.21483
3842.43429,0.21508
3841.72167,0.21543
3841.00906,0.21579
3840.29644,0.21601
3839.58382,0.21592
3838.87120,0.21544
3838.15859,0.21461
3837.44597,0.21361
3836.73335,0.21272
3836.02073,0.21220
3835.30812,0.21215
3834.59550,0.21250
3833.88288,0.21303
3833.17026,0.21350
3832.45764,0.21377
3831.74503,0.21381
3831.03241,0.21367
3830.31979,0.21341
3829.60717,0.21309
3828.89456,0.21270
3828.18194,0.21224
3827.46932,0.21172
3826.75670,0.21115
3826.04409,0.21058
3825.33147,0.21009
3824.61885,0.20971
3823.90623,0.20941
3823.19362,0.20909
3822.48100,0.20867
3821.76838,0.20809
3821.05576,0.20739
3820.34315,0.20666
3819.63053,0.20604
3818.91791,0.20568
3818.20529,0.20572
3817.49267,0.20613
3816.78006,0.20673
3816.06744,0.20717
3815.35482,0.20711
3814.64220,0.20639
3813.92959,0.20508
3813.21697,0.20335
3812.50435,0.20143
3811.79173,0.19953
3811.07912,0.19783
3810.36650,0.19643
3809.65388,0.19538
3808.94126,0.19471
3808.22865,0.19439
3807.51603,0.19435
3806.80341,0.19445
3806.09079,0.19454
3805.37817,0.19451
3804.66556,0.19431
3803.95294,0.19392
3803.24032,0.19334
3802.52770,0.19256
3801.81509,0.19164
3801.10247,0.19057
3800.38985,0.18937
3799.67723,0.18810
3798.96462,0.18686
3798.25200,0.18573
3797.53938,0.18479
3796.82676,0.18407
3796.11415,0.18353
3795.40153,0.18313
3794.68891,0.18280
3793.97629,0.18250
3793.26367,0.18222
3792.55106,0.18197
3791.83844,0.18174
3791.12582,0.18155
3790.41320,0.18133
3789.70059,0.18105
3788.98797,0.18063
3788.27535,0.18002
3787.56273,0.17916
3786.85012,0.17803
3786.13750,0.17664
3785.42488,0.17505
3784.71226,0.17334
3783.99965,0.17165
3783.28703,0.17013
3782.57441,0.16889
3781.86179,0.16797
3781.14918,0.16729
3780.43656,0.16670
3779.72394,0.16605
3779.01132,0.16527
3778.29870,0.16437
3777.58609,0.16343
3776.87347,0.16252
3776.16085,0.16170
3775.44823,0.16103
3774.73562,0.16056
3774.02300,0.16031
3773.31038,0.16025
3772.59776,0.16031
3771.88515,0.16035
3771.17253,0.16030
3770.45991,0.16008
3769.74729,0.15965
3769.03468,0.15900
3768.32206,0.15817
3767.60944,0.15726
3766.89682,0.15637
3766.18420,0.15552
3765.47159,0.15465
3764.75897,0.15373
3764.04635,0.15275
3763.33373,0.15176
3762.62112,0.15084
3761.90850,0.15001
3761.19588,0.14927
3760.48326,0.14856
3759.77065,0.14785
3759.05803,0.14710
3758.34541,0.14631
3757.63279,0.14556
3756.92018,0.14489
3756.20756,0.14435
3755.49494,0.14394
3754.78232,0.14369
3754.06971,0.14361
3753.35709,0.14371
3752.64447,0.14395
3751.93185,0.14419
3751.21923,0.14432
3750.50662,0.14421
3749.79400,0.14381
3749.08138,0.14308
3748.36876,0.14202
3747.65615,0.14071
3746.94353,0.13929
3746.23091,0.13797
3745.51829,0.13693
3744.80568,0.13623
3744.09306,0.13576
3743.38044,0.13536
3742.66782,0.13495
3741.95521,0.13454
3741.24259,0.13421
3740.52997,0.13398
3739.81735,0.13382
3739.10473,0.13363
3738.39212,0.13328
3737.67950,0.13269
3736.96688,0.13189
3736.25426,0.13099
3735.54165,0.13014
3734.82903,0.12948
3734.11641,0.12909
3733.40379,0.12892
3732.69118,0.12892
3731.97856,0.12899
3731.26594,0.12902
3730.55332,0.12888
3729.84071,0.12844
3729.12809,0.12764
3728.41547,0.12656
3727.70285,0.12537
3726.99023,0.12426
3726.27762,0.12336
3725.56500,0.12273
3724.85238,0.12239
3724.13976,0.12230
3723.42715,0.12239
3722.71453,0.12252
3722.00191,0.12253
3721.28929,0.12233
3720.57668,0.12193
3719.86406,0.12141
3719.15144,0.12086
3718.43882,0.12031
3717.72621,0.11977
3717.01359,0.11920
3716.30097,0.11860
3715.58835,0.11800
3714.87574,0.11748
3714.16312,0.11711
3713.45050,0.11696
3712.73788,0.11702
3712.02526,0.11719
3711.31265,0.11735
3710.60003,0.11738
3709.88741,0.11723
3709.17479,0.11687
3708.46218,0.11628
3707.74956,0.11554
3707.03694,0.11481
3706.32432,0.11424
3705.61171,0.11389
3704.89909,0.11374
3704.18647,0.11372
3703.47385,0.11377
3702.76124,0.11386
3702.04862,0.11396
3701.33600,0.11399
3700.62338,0.11389
3699.91076,0.11360
3699.19815,0.11314
3698.48553,0.11257
3697.77291,0.11199
3697.06029,0.11151
3696.34768,0.11119
3695.63506,0.11101
3694.92244,0.11086
3694.20982,0.11059
3693.49721,0.11009
3692.78459,0.10937
3692.07197,0.10855
3691.35935,0.10787
3690.64674,0.10748
3689.93412,0.10747
3689.22150,0.10782
3688.50888,0.10841
3687.79626,0.10906
3687.08365,0.10961
3686.37103,0.11000
3685.65841,0.11027
3684.94579,0.11051
3684.23318,0.11081
3683.52056,0.11118
3682.80794,0.11157
3682.09532,0.11193
3681.38271,0.11223
3680.67009,0.11249
3679.95747,0.11279
3679.24485,0.11316
3678.53224,0.11358
3677.81962,0.11401
3677.10700,0.11439
3676.39438,0.11464
3675.68177,0.11463
3674.96915,0.11421
3674.25653,0.11341
3673.54391,0.11245
3672.83129,0.11160
3672.11868,0.11109
3671.40606,0.11098
3670.69344,0.11122
3669.98082,0.11166
3669.26821,0.11216
3668.55559,0.11263
3667.84297,0.11301
3667.13035,0.11334
3666.41774,0.11368
3665.70512,0.11413
3664.99250,0.11473
3664.27988,0.11545
3663.56727,0.11617
3662.85465,0.11681
3662.14203,0.11734
3661.42941,0.11784
3660.71679,0.11840
3660.00418,0.11908
3659.29156,0.11985
3658.57894,0.12067
3657.86632,0.12152
3657.15371,0.12236
3656.44109,0.12317
3655.72847,0.12384
3655.01585,0.12423
3654.30324,0.12433
3653.59062,0.12424
3652.87800,0.12414
3652.16538,0.12424
3651.45277,0.12466
3650.74015,0.12539
3650.02753,0.12628
3649.31491,0.12718
3648.60229,0.12797
3647.88968,0.12865
3647.17706,0.12921
3646.46444,0.12966
3645.75182,0.13002
3645.03921,0.13037
3644.32659,0.13076
3643.61397,0.13123
3642.90135,0.13179
3642.18874,0.13246
3641.47612,0.13325
3640.76350,0.13421
3640.05088,0.13534
3639.33827,0.13657
3638.62565,0.13779
3637.91303,0.13882
3637.20041,0.13955
3636.48780,0.13999
3635.77518,0.14025
3635.06256,0.14049
3634.34994,0.14092
3633.63732,0.14165
3632.92471,0.14265
3632.21209,0.14380
3631.49947,0.14490
3630.78685,0.14582
3630.07424,0.14653
3629.36162,0.14708
3628.64900,0.14761
3627.93638,0.14820
3627.22377,0.14889
3626.51115,0.14967
3625.79853,0.15056
3625.08591,0.15157
3624.37330,0.15271
3623.66068,0.15397
3622.94806,0.15530
3622.23544,0.15660
3621.52282,0.15780
3620.81021,0.15890
3620.09759,0.15994
3619.38497,0.16093
3618.67235,0.16190
3617.95974,0.16280
3617.24712,0.16363
3616.53450,0.16442
3615.82188,0.16520
3615.10927,0.16606
3614.39665,0.16705
3613.68403,0.16817
3612.97141,0.16942
3612.25880,0.17073
3611.54618,0.17205
3610.83356,0.17334
3610.12094,0.17462
3609.40832,0.17590
3608.69571,0.17721
3607.98309,0.17852
3607.27047,0.17976
3606.55785,0.18082
3605.84524,0.18160
3605.13262,0.18209
3604.42000,0.18236
3603.70738,0.18254
3602.99477,0.18276
3602.28215,0.18317
3601.56953,0.18385
3600.85691,0.18480
3600.14430,0.18596
3599.43168,0.18725
3598.71906,0.18858
3598.00644,0.18990
3597.29383,0.19113
3596.58121,0.19225
3595.86859,0.19327
3595.15597,0.19426
3594.44335,0.19526
3593.73074,0.19633
3593.01812,0.19750
3592.30550,0.19879
3591.59288,0.20020
3590.88027,0.20171
3590.16765,0.20328
3589.45503,0.20489
3588.74241,0.20650
3588.02980,0.20807
3587.31718,0.20954
3586.60456,0.21090
3585.89194,0.21215
3585.17933,0.21331
3584.46671,0.21442
3583.75409,0.21551
3583.04147,0.21661
3582.32885,0.21778
3581.61624,0.21904
3580.90362,0.22041
3580.19100,0.22190
3579.47838,0.22353
3578.76577,0.22528
3578.05315,0.22705
3577.34053,0.22869
3576.62791,0.23004
3575.91530,0.23103
3575.20268,0.23170
3574.49006,0.23220
3573.77744,0.23269
3573.06483,0.23331
3572.35221,0.23416
3571.63959,0.23529
3570.92697,0.23668
3570.21435,0.23830
3569.50174,0.24019
3568.78912,0.24238
3568.07650,0.24487
3567.36388,0.24754
3566.65127,0.25016
3565.93865,0.25254
3565.22603,0.25451
3564.51341,0.25604
3563.80080,0.25720
3563.08818,0.25809
3562.37556,0.25886
3561.66294,0.25959
3560.95033,0.26034
3560.23771,0.26113
3559.52509,0.26195
3558.81247,0.26280
3558.09986,0.26371
3557.38724,0.26476
3556.67462,0.26606
3555.96200,0.26774
3555.24938,0.26986
3554.53677,0.27232
3553.82415,0.27491
3553.11153,0.27738
3552.39891,0.27962
3551.68630,0.28164
3550.97368,0.28357
3550.26106,0.28553
3549.54844,0.28762
3548.83583,0.28984
3548.12321,0.29215
3547.41059,0.29446
3546.69797,0.29665
3545.98536,0.29863
3545.27274,0.30027
3544.56012,0.30148
3543.84750,0.30228
3543.13488,0.30281
3542.42227,0.30328
3541.70965,0.30388
3540.99703,0.30471
3540.28441,0.30583
3539.57180,0.30728
3538.85918,0.30910
3538.14656,0.31128
3537.43394,0.31379
3536.72133,0.31651
3536.00871,0.31924
3535.29609,0.32177
3534.58347,0.32390
3533.87086,0.32560
3533.15824,0.32697
3532.44562,0.32820
3531.73300,0.32952
3531.02039,0.33110
3530.30777,0.33299
3529.59515,0.33515
3528.88253,0.33749
3528.16991,0.33988
3527.45730,0.34222
3526.74468,0.34445
3526.03206,0.34651
3525.31944,0.34844
3524.60683,0.35035
3523.89421,0.35241
3523.18159,0.35471
3522.46897,0.35732
3521.75636,0.36015
3521.04374,0.36311
3520.33112,0.36603
3519.61850,0.36877
3518.90589,0.37118
3518.19327,0.37317
3517.48065,0.37468
3516.76803,0.37570
3516.05541,0.37635
3515.34280,0.37688
3514.63018,0.37763
3513.91756,0.37886
3513.20494,0.38072
3512.49233,0.38317
3511.77971,0.38606
3511.06709,0.38919
3510.35447,0.39229
3509.64186,0.39518
3508.92924,0.39775
3508.21662,0.39998
3507.50400,0.40190
3506.79139,0.40358
3506.07877,0.40516
3505.36615,0.40683
3504.65353,0.40876
3503.94091,0.41098
3503.22830,0.41343
3502.51568,0.41600
3501.80306,0.41861
3501.09044,0.42126
3500.37783,0.42397
3499.66521,0.42674
3498.95259,0.42950
3498.23997,0.43216
3497.52736,0.43467
3496.81474,0.43696
3496.10212,0.43900
3495.38950,0.44074
3494.67689,0.44224
3493.96427,0.44366
3493.25165,0.44522
3492.53903,0.44713
3491.82642,0.44943
3491.11380,0.45205
3490.40118,0.45480
3489.68856,0.45744
3488.97594,0.45974
3488.26333,0.46157
3487.55071,0.46302
3486.83809,0.46431
3486.12547,0.46574
3485.41286,0.46747
3484.70024,0.46952
3483.98762,0.47179
3483.27500,0.47415
3482.56239,0.47647
3481.84977,0.47866
3481.13715,0.48070
3480.42453,0.48267
3479.71192,0.48472
3478.99930,0.48695
3478.28668,0.48931
3477.57406,0.49163
3476.86144,0.49369
3476.14883,0.49535
3475.43621,0.49664
3474.72359,0.49768
3474.01097,0.49866
3473.29836,0.49970
3472.58574,0.50085
3471.87312,0.50214
3471.16050,0.50361
3470.44789,0.50533
3469.73527,0.50733
3469.02265,0.50961
3468.31003,0.51211
3467.59742,0.51473
3466.88480,0.51742
3466.17218,0.52019
3465.45956,0.52303
3464.74694,0.52584
3464.03433,0.52847
3463.32171,0.53075
3462.60909,0.53261
3461.89647,0.53411
3461.18386,0.53550
3460.47124,0.53706
3459.75862,0.53896
3459.04600,0.54112
3458.33339,0.54334
3457.62077,0.54538
3456.90815,0.54711
3456.19553,0.54857
3455.48292,0.54995
3454.77030,0.55145
3454.05768,0.55317
3453.34506,0.55507
3452.63245,0.55702
3451.91983,0.55886
3451.20721,0.56044
3450.49459,0.56165
3449.78197,0.56246
3449.06936,0.56294
3448.35674,0.56327
3447.64412,0.56371
3446.93150,0.56448
3446.21889,0.56573
3445.50627,0.56744
3444.79365,0.56942
3444.08103,0.57144
3443.36842,0.57334
3442.65580,0.57508
3441.94318,0.57673
3441.23056,0.57832
3440.51795,0.57981
3439.80533,0.58117
3439.09271,0.58238
3438.38009,0.58342
3437.66747,0.58434
3436.95486,0.58523
3436.24224,0.58624
3435.52962,0.58747
3434.81700,0.58885
3434.10439,0.59021
3433.39177,0.59137
3432.67915,0.59227
3431.96653,0.59307
3431.25392,0.59395
3430.54130,0.59506
3429.82868,0.59639
3429.11606,0.59781
3428.40345,0.59912
3427.69083,0.60016
3426.97821,0.60088
3426.26559,0.60130
3425.55297,0.60154
3424.84036,0.60177
3424.12774,0.60210
3423.41512,0.60260
3422.70250,0.60328
3421.98989,0.60410
3421.27727,0.60502
3420.56465,0.60592
3419.85203,0.60669
3419.13942,0.60723
3418.42680,0.60749
3417.71418,0.60754
3417.00156,0.60752
3416.28895,0.60759
3415.57633,0.60788
3414.86371,0.60844
3414.15109,0.60927
3413.43848,0.61023
3412.72586,0.61113
3412.01324,0.61182
3411.30062,0.61231
3410.58800,0.61276
3409.87539,0.61338
3409.16277,0.61422
3408.45015,0.61518
3407.73753,0.61601
3407.02492,0.61648
3406.31230,0.61649
3405.59968,0.61613
3404.88706,0.61564
3404.17445,0.61530
3403.46183,0.61532
3402.74921,0.61570
3402.03659,0.61633
3401.32398,0.61704
3400.61136,0.61769
3399.89874,0.61825
3399.18612,0.61871
3398.47350,0.61899
3397.76089,0.61891
3397.04827,0.61828
3396.33565,0.61714
3395.62303,0.61570
3394.91042,0.61427
3394.19780,0.61299
3393.48518,0.61183
3392.77256,0.61065
3392.05995,0.60935
3391.34733,0.60798
3390.63471,0.60669
3389.92209,0.60565
3389.20948,0.60498
3388.49686,0.60467
3387.78424,0.60458
3387.07162,0.60456
3386.35900,0.60458
3385.64639,0.60463
3384.93377,0.60470
3384.22115,0.60475
3383.50853,0.60470
3382.79592,0.60445
3382.08330,0.60395
3381.37068,0.60316
3380.65806,0.60210
3379.94545,0.60080
3379.23283,0.59931
3378.52021,0.59775
3377.80759,0.59633
3377.09498,0.59530
3376.38236,0.59478
3375.66974,0.59463
3374.95712,0.59449
3374.24451,0.59390
3373.53189,0.59261
3372.81927,0.59063
3372.10665,0.58822
3371.39403,0.58573
3370.68142,0.58343
3369.96880,0.58147
3369.25618,0.57990
3368.54356,0.57867
3367.83095,0.57766
3367.11833,0.57673
3366.40571,0.57571
3365.69309,0.57445
3364.98048,0.57277
3364.26786,0.57062
3363.55524,0.56812
3362.84262,0.56555
3362.13001,0.56322
3361.41739,0.56128
3360.70477,0.55963
3359.99215,0.55803
3359.27953,0.55631
3358.56692,0.55445
3357.85430,0.55261
3357.14168,0.55098
3356.42906,0.54971
3355.71645,0.54877
3355.00383,0.54805
3354.29121,0.54737
3353.57859,0.54658
3352.86598,0.54552
3352.15336,0.54406
3351.44074,0.54211
3350.72812,0.53974
3350.01551,0.53712
3349.30289,0.53447
3348.59027,0.53193
3347.87765,0.52957
3347.16504,0.52741
3346.45242,0.52541
3345.73980,0.52348
3345.02718,0.52149
3344.31456,0.51934
3343.60195,0.51701
3342.88933,0.51457
3342.17671,0.51209
3341.46409,0.50962
3340.75148,0.50720
3340.03886,0.50484
3339.32624,0.50261
3338.61362,0.50058
3337.90101,0.49885
3337.18839,0.49740
3336.47577,0.49609
3335.76315,0.49470
3335.05054,0.49304
3334.33792,0.49104
3333.62530,0.48872
3332.91268,0.48620
3332.20006,0.48361
3331.48745,0.48111
3330.77483,0.47877
3330.06221,0.47655
3329.34959,0.47435
3328.63698,0.47209
3327.92436,0.46981
3327.21174,0.46764
3326.49912,0.46572
3325.78651,0.46411
3325.07389,0.46272
3324.36127,0.46136
3323.64865,0.45986
3322.93604,0.45811
3322.22342,0.45606
3321.51080,0.45372
3320.79818,0.45109
3320.08556,0.44823
3319.37295,0.44529
3318.66033,0.44252
3317.94771,0.44015
3317.23509,0.43828
3316.52248,0.43680
3315.80986,0.43547
3315.09724,0.43401
3314.38462,0.43228
3313.67201,0.43027
3312.95939,0.42800
3312.24677,0.42551
3311.53415,0.42286
3310.82154,0.42004
3310.10892,0.41705
3309.39630,0.41388
3308.68368,0.41056
3307.97107,0.40714
3307.25845,0.40375
3306.54583,0.40057
3305.83321,0.39783
3305.12059,0.39572
3304.40798,0.39429
3303.69536,0.39343
3302.98274,0.39286
3302.27012,0.39228
3301.55751,0.39142
3300.84489,0.39015
3300.13227,0.38844
3299.41965,0.38636
3298.70704,0.38398
3297.99442,0.38132
3297.28180,0.37841
3296.56918,0.37536
3295.85657,0.37236
3295.14395,0.36961
3294.43133,0.36723
3293.71871,0.36516
3293.00609,0.36326
3292.29348,0.36136
3291.58086,0.35935
3290.86824,0.35718
3290.15562,0.35484
3289.44301,0.35240
3288.73039,0.34996
3288.01777,0.34768
3287.30515,0.34565
3286.59254,0.34388
3285.87992,0.34231
3285.16730,0.34088
3284.45468,0.33953
3283.74207,0.33818
3283.02945,0.33674
3282.31683,0.33514
3281.60421,0.33338
3280.89159,0.33150
3280.17898,0.32958
3279.46636,0.32767
3278.75374,0.32582
3278.04112,0.32399
3277.32851,0.32217
3276.61589,0.32033
3275.90327,0.31847
3275.19065,0.31657
3274.47804,0.31457
3273.76542,0.31245
3273.05280,0.31023
3272.34018,0.30797
3271.62757,0.30575
3270.91495,0.30363
3270.20233,0.30165
3269.48971,0.29982
3268.77710,0.29812
3268.06448,0.29650
3267.35186,0.29491
3266.63924,0.29332
3265.92662,0.29170
3265.21401,0.29004
3264.50139,0.28834
3263.78877,0.28666
3263.07615,0.28508
3262.36354,0.28368
3261.65092,0.28247
3260.93830,0.28137
3260.22568,0.28028
3259.51307,0.27906
3258.80045,0.27760
3258.08783,0.27591
3257.37521,0.27407
3256.66260,0.27219
3255.94998,0.27039
3255.23736,0.26868
3254.52474,0.26703
3253.81212,0.26538
3253.09951,0.26372
3252.38689,0.26207
3251.67427,0.26049
3250.96165,0.25899
3250.24904,0.25752
3249.53642,0.25605
3248.82380,0.25453
3248.11118,0.25299
3247.39857,0.25152
3246.68595,0.25018
3245.97333,0.24903
3245.26071,0.24812
3244.54810,0.24745
3243.83548,0.24694
3243.12286,0.24642
3242.41024,0.24565
3241.69762,0.24446
3240.98501,0.24281
3240.27239,0.24080
3239.55977,0.23868
3238.84715,0.23666
3238.13454,0.23491
3237.42192,0.23350
3236.70930,0.23242
3235.99668,0.23160
3235.28407,0.23086
3234.57145,0.23005
3233.85883,0.22906
3233.14621,0.22784
3232.43360,0.22641
3231.72098,0.22484
3231.00836,0.22317
3230.29574,0.22148
3229.58313,0.21987
3228.87051,0.21841
3228.15789,0.21715
3227.44527,0.21608
3226.73265,0.21511
3226.02004,0.21418
3225.30742,0.21323
3224.59480,0.21225
3223.88218,0.21127
3223.16957,0.21030
3222.45695,0.20940
3221.74433,0.20860
3221.03171,0.20793
3220.31910,0.20735
3219.60648,0.20682
3218.89386,0.20625
3218.18124,0.20558
3217.46863,0.20472
3216.75601,0.20365
3216.04339,0.20238
3215.33077,0.20097
3214.61815,0.19951
3213.90554,0.19805
3213.19292,0.19663
3212.48030,0.19525
3211.76768,0.19393
3211.05507,0.19275
3210.34245,0.19176
3209.62983,0.19098
3208.91721,0.19041
3208.20460,0.19002
3207.49198,0.18974
3206.77936,0.18948
3206.06674,0.18918
3205.35413,0.18880
3204.64151,0.18834
3203.92889,0.18779
3203.21627,0.18712
3202.50365,0.18629
3201.79104,0.18530
3201.07842,0.18421
3200.36580,0.18313
3199.65318,0.18215
3198.94057,0.18132
3198.22795,0.18063
3197.51533,0.18002
3196.80271,0.17945
3196.09010,0.17891
3195.37748,0.17843
3194.66486,0.17805
3193.95224,0.17774
3193.23963,0.17741
3192.52701,0.17699
3191.81439,0.17642
3191.10177,0.17568
3190.38916,0.17480
3189.67654,0.17380
3188.96392,0.17272
3188.25130,0.17155
3187.53868,0.17031
3186.82607,0.16905
3186.11345,0.16787
3185.40083,0.16687
3184.68821,0.16615
3183.97560,0.16567
3183.26298,0.16536
3182.55036,0.16509
3181.83774,0.16481
3181.12513,0.16447
3180.41251,0.16408
3179.69989,0.16360
3178.98727,0.16296
3178.27466,0.16209
3177.56204,0.16098
3176.84942,0.15974
3176.13680,0.15852
3175.42418,0.15749
3174.71157,0.15680
3173.99895,0.15649
3173.28633,0.15650
3172.57371,0.15671
3171.86110,0.15693
3171.14848,0.15702
3170.43586,0.15693
3169.72324,0.15665
3169.01063,0.15626
3168.29801,0.15581
3167.58539,0.15536
3166.87277,0.15492
3166.16016,0.15449
3165.44754,0.15406
3164.73492,0.15361
3164.02230,0.15312
3163.30968,0.15259
3162.59707,0.15199
3161.88445,0.15133
3161.17183,0.15065
3160.45921,0.14999
3159.74660,0.14940
3159.03398,0.14891
3158.32136,0.14846
3157.60874,0.14798
3156.89613,0.14742
3156.18351,0.14673
3155.47089,0.14597
3154.75827,0.14520
3154.04566,0.14453
3153.33304,0.14401
3152.62042,0.14366
3151.90780,0.14347
3151.19519,0.14344
3150.48257,0.14356
3149.76995,0.14380
3149.05733,0.14410
3148.34471,0.14436
3147.63210,0.14449
3146.91948,0.14445
3146.20686,0.14421
3145.49424,0.14380
3144.78163,0.14326
3144.06901,0.14267
3143.35639,0.14211
3142.64377,0.14164
3141.93116,0.14127
3141.21854,0.14098
3140.50592,0.14075
3139.79330,0.14057
3139.08069,0.14041
3138.36807,0.14025
3137.65545,0.14004
3136.94283,0.13978
3136.23021,0.13947
3135.51760,0.13914
3134.80498,0.13880
3134.09236,0.13848
3133.37974,0.13822
3132.66713,0.13809
3131.95451,0.13812
3131.24189,0.13830
3130.52927,0.13850
3129.81666,0.13860
3129.10404,0.13849
3128.39142,0.13816
3127.67880,0.13767
3126.96619,0.13711
3126.25357,0.13654
3125.54095,0.13603
3124.82833,0.13563
3124.11572,0.13536
3123.40310,0.13523
3122.69048,0.13521
3121.97786,0.13524
3121.26524,0.13527
3120.55263,0.13525
3119.84001,0.13516
3119.12739,0.13502
3118.41477,0.13482
3117.70216,0.13456
3116.98954,0.13425
3116.27692,0.13392
3115.56430,0.13367
3114.85169,0.13355
3114.13907,0.13360
3113.42645,0.13381
3112.71383,0.13408
3112.00122,0.13434
3111.28860,0.13454
3110.57598,0.13469
3109.86336,0.13480
3109.15074,0.13488
3108.43813,0.13495
3107.72551,0.13501
3107.01289,0.13507
3106.30027,0.13513
3105.58766,0.13520
3104.87504,0.13524
3104.16242,0.13518
3103.44980,0.13497
3102.73719,0.13460
3102.02457,0.13411
3101.31195,0.13358
3100.59933,0.13306
3099.88672,0.13259
3099.17410,0.13217
3098.46148,0.13180
3097.74886,0.13153
3097.03624,0.13139
3096.32363,0.13140
3095.61101,0.13153
3094.89839,0.13171
3094.18577,0.13192
3093.47316,0.13214
3092.76054,0.13236
3092.04792,0.13251
3091.33530,0.13253
3090.62269,0.13239
3089.91007,0.13214
3089.19745,0.13187
3088.48483,0.13166
3087.77222,0.13154
3087.05960,0.13149
3086.34698,0.13145
3085.63436,0.13143
3084.92175,0.13145
3084.20913,0.13160
3083.49651,0.13194
3082.78389,0.13250
3082.07127,0.13321
3081.35866,0.13396
3080.64604,0.13458
3079.93342,0.13493
3079.22080,0.13493
3078.50819,0.13461
3077.79557,0.13410
3077.08295,0.13355
3076.37033,0.13310
3075.65772,0.13284
3074.94510,0.13275
3074.23248,0.13277
3073.51986,0.13283
3072.80725,0.13293
3072.09463,0.13311
3071.38201,0.13341
3070.66939,0.13383
3069.95677,0.13437
3069.24416,0.13498
3068.53154,0.13557
3067.81892,0.13604
3067.10630,0.13635
3066.39369,0.13649
3065.68107,0.13657
3064.96845,0.13667
3064.25583,0.13685
3063.54322,0.13710
3062.83060,0.13733
3062.11798,0.13746
3061.40536,0.13740
3060.69275,0.13719
3059.98013,0.13695
3059.26751,0.13683
3058.55489,0.13694
3057.84227,0.13729
3057.12966,0.13779
3056.41704,0.13828
3055.70442,0.13862
3054.99180,0.13874
3054.27919,0.13866
3053.56657,0.13850
3052.85395,0.13836
3052.14133,0.13829
3051.42872,0.13830
3050.71610,0.13836
3050.00348,0.13843
3049.29086,0.13854
3048.57825,0.13870
3047.86563,0.13897
3047.15301,0.13941
3046.44039,0.14005
3045.72778,0.14088
3045.01516,0.14182
3044.30254,0.14275
3043.58992,0.14357
3042.87730,0.14419
3042.16469,0.14459
3041.45207,0.14476
3040.73945,0.14474
3040.02683,0.14464
3039.31422,0.14454
3038.60160,0.14454
3037.88898,0.14469
3037.17636,0.14499
3036.46375,0.14536
3035.75113,0.14571
3035.03851,0.14600
3034.32589,0.14618
3033.61328,0.14627
3032.90066,0.14631
3032.18804,0.14636
3031.47542,0.14649
3030.76280,0.14671
3030.05019,0.14699
3029.33757,0.14733
3028.62495,0.14771
3027.91233,0.14811
3027.19972,0.14849
3026.48710,0.14881
3025.77448,0.14905
3025.06186,0.14922
3024.34925,0.14941
3023.63663,0.14968
3022.92401,0.15008
3022.21139,0.15062
3021.49878,0.15125
3020.78616,0.15192
3020.07354,0.15260
3019.36092,0.15325
3018.64830,0.15386
3017.93569,0.15441
3017.22307,0.15491
3016.51045,0.15537
3015.79783,0.15579
3015.08522,0.15621
3014.37260,0.15664
3013.65998,0.15715
3012.94736,0.15776
3012.23475,0.15849
3011.52213,0.15927
3010.80951,0.16000
3010.09689,0.16057
3009.38428,0.16098
3008.67166,0.16128
3007.95904,0.16156
3007.24642,0.16191
3006.53381,0.16238
3005.82119,0.16297
3005.10857,0.16366
3004.39595,0.16439
3003.68333,0.16511
3002.97072,0.16576
3002.25810,0.16629
3001.54548,0.16673
3000.83286,0.16718
3000.12025,0.16782
2999.40763,0.16881
2998.69501,0.17009
2997.98239,0.17086
2997.26978,0.17060
2996.55716,0.16966
2995.84454,0.16882
2995.13192,0.16850
2994.41931,0.16878
2993.70669,0.16973
2992.99407,0.17143
2992.28145,0.17354
2991.56883,0.17522
2990.85622,0.17583
2990.14360,0.17541
2989.43098,0.17457
2988.71836,0.17402
2988.00575,0.17419
2987.29313,0.17507
2986.58051,0.17621
2985.86789,0.17698
2985.15528,0.17710
2984.44266,0.17688
2983.73004,0.17684
2983.01742,0.17728
2982.30481,0.17818
2981.59219,0.17948
2980.87957,0.18105
2980.16695,0.18264
2979.45433,0.18388
2978.74172,0.18442
2978.02910,0.18426
2977.31648,0.18382
2976.60386,0.18369
2975.89125,0.18419
2975.17863,0.18515
2974.46601,0.18615
2973.75339,0.18691
2973.04078,0.18739
2972.32816,0.18763
2971.61554,0.18768
2970.90292,0.18763
2970.19031,0.18768
2969.47769,0.18801
2968.76507,0.18871
2968.05245,0.18970
2967.33984,0.19069
2966.62722,0.19136
2965.91460,0.19168
2965.20198,0.19202
2964.48936,0.19275
2963.77675,0.19390
2963.06413,0.19514
2962.35151,0.19611
2961.63889,0.19672
2960.92628,0.19715
2960.21366,0.19765
2959.50104,0.19828
2958.78842,0.19896
2958.07581,0.19958
2957.36319,0.20006
2956.65057,0.20032
2955.93795,0.20028
2955.22534,0.19991
2954.51272,0.19931
2953.80010,0.19869
2953.08748,0.19837
2952.37486,0.19862
2951.66225,0.19946
2950.94963,0.20057
2950.23701,0.20146
2949.52439,0.20188
2948.81178,0.20203
2948.09916,0.20234
2947.38654,0.20294
2946.67392,0.20361
2945.96131,0.20411
2945.24869,0.20450
2944.53607,0.20499
2943.82345,0.20568
2943.11084,0.20633
2942.39822,0.20649
2941.68560,0.20592
2940.97298,0.20493
2940.26037,0.20426
2939.54775,0.20437
2938.83513,0.20503
2938.12251,0.20559
2937.40989,0.20577
2936.69728,0.20585
2935.98466,0.20616
2935.27204,0.20659
2934.55942,0.20677
2933.84681,0.20660
2933.13419,0.20645
2932.42157,0.20673
2931.70895,0.20748
2930.99634,0.20831
2930.28372,0.20884
2929.57110,0.20899
2928.85848,0.20888
2928.14587,0.20866
2927.43325,0.20850
2926.72063,0.20858
2926.00801,0.20903
2925.29539,0.20972
2924.58278,0.21036
2923.87016,0.21067
2923.15754,0.21060
2922.44492,0.21039
2921.73231,0.21032
2921.01969,0.21057
2920.30707,0.21114
2919.59445,0.21187
2918.88184,0.21248
2918.16922,0.21274
2917.45660,0.21268
2916.74398,0.21255
2916.03137,0.21255
2915.31875,0.21264
2914.60613,0.21271
2913.89351,0.21283
2913.18089,0.21306
2912.46828,0.21329
2911.75566,0.21331
2911.04304,0.21305
2910.33042,0.21251
2909.61781,0.21165
2908.90519,0.21057
2908.19257,0.20958
2907.47995,0.20916
2906.76734,0.20951
2906.05472,0.21041
2905.34210,0.21140
2904.62948,0.21205
2903.91687,0.21218
2903.20425,0.21195
2902.49163,0.21177
2901.77901,0.21191
2901.06640,0.21231
2900.35378,0.21266
2899.64116,0.21284
2898.92854,0.21289
2898.21592,0.21286
2897.50331,0.21273
2896.79069,0.21253
2896.07807,0.21244
2895.36545,0.21260
2894.65284,0.21299
2893.94022,0.21348
2893.22760,0.21386
2892.51498,0.21394
2891.80237,0.21377
2891.08975,0.21370
2890.37713,0.21397
2889.66451,0.21436
2888.95190,0.21451
2888.23928,0.21429
2887.52666,0.21391
2886.81404,0.21364
2886.10142,0.21366
2885.38881,0.21388
2884.67619,0.21408
2883.96357,0.21418
2883.25095,0.21433
2882.53834,0.21478
2881.82572,0.21551
2881.11310,0.21622
2880.40048,0.21658
2879.68787,0.21660
2878.97525,0.21651
2878.26263,0.21661
2877.55001,0.21704
2876.83740,0.21782
2876.12478,0.21887
2875.41216,0.22002
2874.69954,0.22099
2873.98692,0.22161
2873.27431,0.22194
2872.56169,0.22216
2871.84907,0.22240
2871.13645,0.22264
2870.42384,0.22284
2869.71122,0.22309
2868.99860,0.22359
2868.28598,0.22451
2867.57337,0.22576
2866.86075,0.22696
2866.14813,0.22763
2865.43551,0.22757
2864.72290,0.22704
2864.01028,0.22648
2863.29766,0.22628
2862.58504,0.22657
2861.87243,0.22724
2861.15981,0.22799
2860.44719,0.22837
2859.73457,0.22814
2859.02195,0.22772
2858.30934,0.22793
2857.59672,0.22926
2856.88410,0.23143
2856.17148,0.23360
2855.45887,0.23501
2854.74625,0.23539
2854.03363,0.23497
2853.32101,0.23424
2852.60840,0.23362
2851.89578,0.23330
2851.18316,0.23335
2850.47054,0.23373
2849.75793,0.23430
2849.04531,0.23494
2848.33269,0.23558
2847.62007,0.23629
2846.90745,0.23713
2846.19484,0.23806
2845.48222,0.23899
2844.76960,0.23999
2844.05698,0.24123
2843.34437,0.24273
2842.63175,0.24420
2841.91913,0.24520
2841.20651,0.24555
2840.49390,0.24547
2839.78128,0.24537
2839.06866,0.24560
2838.35604,0.24631
2837.64343,0.24746
2836.93081,0.24892
2836.21819,0.25045
2835.50557,0.25177
2834.79295,0.25263
2834.08034,0.25307
2833.36772,0.25339
2832.65510,0.25396
2831.94248,0.25497
2831.22987,0.25627
2830.51725,0.25750
2829.80463,0.25834
2829.09201,0.25879
2828.37940,0.25918
2827.66678,0.25994
2826.95416,0.26125
2826.24154,0.26284
2825.52893,0.26424
2824.81631,0.26543
2824.10369,0.26682
2823.39107,0.26861
2822.67846,0.27044
2821.96584,0.27172
2821.25322,0.27236
2820.54060,0.27281
2819.82798,0.27365
2819.11537,0.27506
2818.40275,0.27663
2817.69013,0.27787
2816.97751,0.27871
2816.26490,0.27968
2815.55228,0.28122
2814.83966,0.28303
2814.12704,0.28436
2813.41443,0.28491
2812.70181,0.28526
2811.98919,0.28613
2811.27657,0.28763
2810.56396,0.28938
2809.85134,0.29110
2809.13872,0.29285
2808.42610,0.29465
2807.71348,0.29627
2807.00087,0.29755
2806.28825,0.29872
2805.57563,0.30011
2804.86301,0.30161
2804.15040,0.30286
2803.43778,0.30381
2802.72516,0.30496
2802.01254,0.30687
2801.29993,0.30973
2800.58731,0.31325
2799.87469,0.31693
2799.16207,0.32035
2798.44946,0.32329
2797.73684,0.32564
2797.02422,0.32740
2796.31160,0.32874
2795.59898,0.33003
2794.88637,0.33173
2794.17375,0.33398
2793.46113,0.33655
2792.74851,0.33922
2792.03590,0.34204
2791.32328,0.34514
2790.61066,0.34832
2789.89804,0.35126
2789.18543,0.35400
2788.47281,0.35694
2787.76019,0.36030
2787.04757,0.36380
2786.33496,0.36709
2785.62234,0.37020
2784.90972,0.37349
2784.19710,0.37733
2783.48449,0.38172
2782.77187,0.38629
2782.05925,0.39052
2781.34663,0.39430
2780.63401,0.39799
2779.92140,0.40221
2779.20878,0.40729
2778.49616,0.41308
2777.78354,0.41891
2777.07093,0.42403
2776.35831,0.42819
2775.64569,0.43187
2774.93307,0.43599
2774.22046,0.44126
2773.50784,0.44796
2772.79522,0.45578
2772.08260,0.46395
2771.36999,0.47167
2770.65737,0.47882
2769.94475,0.48589
2769.23213,0.49325
2768.51951,0.50070
2767.80690,0.50798
2767.09428,0.51544
2766.38166,0.52391
2765.66904,0.53383
2764.95643,0.54477
2764.24381,0.55570
2763.53119,0.56592
2762.81857,0.57570
2762.10596,0.58602
2761.39334,0.59774
2760.68072,0.61092
2759.96810,0.62499
2759.25549,0.63929
2758.54287,0.65346
2757.83025,0.66749
2757.11763,0.68154
2756.40501,0.69598
2755.69240,0.71118
2754.97978,0.72730
2754.26716,0.74412
2753.55454,0.76117
2752.84193,0.77804
2752.12931,0.79472
2751.41669,0.81201
2750.70407,0.83115
2749.99146,0.85273
2749.27884,0.87585
2748.56622,0.89894
2747.85360,0.92145
2747.14099,0.94402
2746.42837,0.96722
2745.71575,0.99081
2745.00313,1.01467
2744.29052,1.04000
2743.57790,1.06879
2742.86528,1.10194
2742.15266,1.13789
2741.44004,1.17348
2740.72743,1.20646
2740.01481,1.23765
2739.30219,1.27068
2738.58957,1.30909
2737.87696,1.35255
2737.16434,1.39701
2736.45172,1.43990
2735.73910,1.48317
2735.02649,1.52896
2734.31387,1.57547
2733.60125,1.62081
2732.88863,1.66755
2732.17602,1.71913
2731.46340,1.77496
2730.75078,1.83157
2730.03816,1.88358
2729.32554,1.92135
2728.61293,1.93676
2727.90031,1.93498
2727.18769,1.93404
2726.47507,1.94969
2725.76246,1.98260
2725.04984,2.02196
2724.33722,2.05635
2723.62460,2.08015
2722.91199,2.09593
2722.19937,2.11138
2721.48675,2.13325
2720.77413,2.17120
2720.06152,2.23764
2719.34890,2.32187
2718.63628,2.37558
2717.92366,2.36583
2717.21105,2.33380
2716.49843,2.32815
2715.78581,2.36899
2715.07319,2.44974
2714.36057,2.52764
2713.64796,2.53938
2712.93534,2.46726
2712.22272,2.35723
2711.51010,2.28108
2710.79749,2.27735
2710.08487,2.33477
2709.37225,2.41612
2708.65963,2.50554
2707.94702,2.63243
2707.23440,2.82096
2706.52178,2.95982
2705.80916,2.85215
2705.09655,2.64874
2704.38393,2.48799
2703.67131,2.37365
2702.95869,2.31525
2702.24607,2.33067
2701.53346,2.40213
2700.82084,2.49332
2700.10822,2.56288
2699.39560,2.55306
2698.68299,2.45073
2697.97037,2.33824
2697.25775,2.30652
2696.54513,2.39737
2695.83252,2.57133
2695.11990,2.70839
2694.40728,2.73228
2693.69466,2.70532
2692.98205,2.63953
2692.26943,2.51153
2691.55681,2.38603
2690.84419,2.35069
2690.13157,2.43069
2689.41896,2.56548
2688.70634,2.64192
2687.99372,2.58738
2687.28110,2.46306
2686.56849,2.36023
2685.85587,2.31533
2685.14325,2.32222
2684.43063,2.39197
2683.71802,2.53209
2683.00540,2.67335
2682.29278,2.68710
2681.58016,2.56312
2680.86755,2.44959
2680.15493,2.41533
2679.44231,2.41541
2678.72969,2.40458
2678.01708,2.40182
2677.30446,2.42612
2676.59184,2.45636
2675.87922,2.45685
2675.16660,2.41332
2674.45399,2.34655
2673.74137,2.29366
2673.02875,2.26978
2672.31613,2.25336
2671.60352,2.21949
2670.89090,2.18614
2670.17828,2.20091
2669.46566,2.29029
2668.75305,2.42536
2668.04043,2.52204
2667.32781,2.51307
2666.61519,2.44497
2665.90258,2.38334
2665.18996,2.33273
2664.47734,2.27598
2663.76472,2.22609
2663.05210,2.22915
2662.33949,2.32188
2661.62687,2.48866
2660.91425,2.65466
2660.20163,2.73068
2659.48902,2.69410
2658.77640,2.62447
2658.06378,2.58151
2657.35116,2.52492
2656.63855,2.40608
2655.92593,2.26882
2655.21331,2.17515
2654.50069,2.15106
2653.78808,2.19337
2653.07546,2.27829
2652.36284,2.36142
2651.65022,2.40325
2650.93760,2.40373
2650.22499,2.38999
2649.51237,2.38485
2648.79975,2.38378
2648.08713,2.37329
2647.37452,2.36380
2646.66190,2.37651
2645.94928,2.41479
2645.23666,2.45363
2644.52405,2.44780
2643.81143,2.37622
2643.09881,2.28488
2642.38619,2.23447
2641.67358,2.25220
2640.96096,2.33364
2640.24834,2.46020
2639.53572,2.60741
2638.82311,2.71892
2638.11049,2.70729
2637.39787,2.58616
2636.68525,2.46817
2635.97263,2.42255
2635.26002,2.42353
2634.54740,2.40387
2633.83478,2.34970
2633.12216,2.31513
2632.40955,2.33627
2631.69693,2.38989
2630.98431,2.42294
2630.27169,2.42710
2629.55908,2.46033
2628.84646,2.55559
2628.13384,2.65553
2627.42122,2.67439
2626.70861,2.62735
2625.99599,2.53611
2625.28337,2.42768
2624.57075,2.33773
2623.85813,2.28230
2623.14552,2.25720
2622.43290,2.25103
2621.72028,2.25867
2621.00766,2.27632
2620.29505,2.29477
2619.58243,2.32019
2618.86981,2.36823
2618.15719,2.42846
2617.44458,2.44716
2616.73196,2.38202
2616.01934,2.29423
2615.30672,2.23520
2614.59411,2.20927
2613.88149,2.20762
2613.16887,2.22412
2612.45625,2.24580
2611.74363,2.25183
2611.03102,2.23004
2610.31840,2.19554
2609.60578,2.18361
2608.89316,2.21908
2608.18055,2.29917
2607.46793,2.40340
2606.75531,2.50729
2606.04269,2.56323
2605.33008,2.51619
2604.61746,2.41739
2603.90484,2.38222
2603.19222,2.43406
2602.47961,2.49676
2601.76699,2.48879
2601.05437,2.41266
2600.34175,2.34268
2599.62914,2.32987
2598.91652,2.36566
2598.20390,2.41839
2597.49128,2.47953
2596.77866,2.54459
2596.06605,2.57743
2595.35343,2.54870
2594.64081,2.46992
2593.92819,2.36625
2593.21558,2.27456
2592.50296,2.22770
2591.79034,2.23390
2591.07772,2.27612
2590.36511,2.32461
2589.65249,2.35381
2588.93987,2.34927
2588.22725,2.32494
2587.51464,2.30514
2586.80202,2.30352
2586.08940,2.32481
2585.37678,2.35953
2584.66416,2.37575
2583.95155,2.34008
2583.23893,2.26110
2582.52631,2.19551
2581.81369,2.21044
2581.10108,2.34554
2580.38846,2.57208
2579.67584,2.77548
2578.96322,2.86124
2578.25061,2.86457
2577.53799,2.79234
2576.82537,2.63844
2576.11275,2.44188
2575.40014,2.27419
2574.68752,2.18164
2573.97490,2.16284
2573.26228,2.18824
2572.54966,2.23310
2571.83705,2.29811
2571.12443,2.39851
2570.41181,2.52798
2569.69919,2.64534
2568.98658,2.70605
2568.27396,2.66326
2567.56134,2.59831
2566.84872,2.56724
2566.13611,2.54852
2565.42349,2.50661
2564.71087,2.46730
2563.99825,2.48135
2563.28564,2.55243
2562.57302,2.60649
2561.86040,2.56952
2561.14778,2.46998
2560.43517,2.37961
2559.72255,2.32282
2559.00993,2.27650
2558.29731,2.22628
2557.58469,2.18819
2556.87208,2.18112
2556.15946,2.20174
2555.44684,2.23012
2554.73422,2.25022
2554.02161,2.26193
2553.30899,2.27650
2552.59637,2.30121
2551.88375,2.32393
2551.17114,2.32368
2550.45852,2.30470
2549.74590,2.29339
2549.03328,2.30617
2548.32067,2.33723
2547.60805,2.36394
2546.89543,2.36143
2546.18281,2.32836
2545.47019,2.30191
2544.75758,2.32460
2544.04496,2.39360
2543.33234,2.45475
2542.61972,2.45694
2541.90711,2.40177
2541.19449,2.33068
2540.48187,2.28245
2539.76925,2.26961
2539.05664,2.28186
2538.34402,2.29766
2537.63140,2.30258
2536.91878,2.29863
2536.20617,2.30334
2535.49355,2.33717
2534.78093,2.39510
2534.06831,2.44654
2533.35570,2.47050
2532.64308,2.47041
2531.93046,2.45810
2531.21784,2.45011
2530.50522,2.46053
2529.79261,2.49482
2529.07999,2.56565
2528.36737,2.65669
2527.65475,2.68262
2526.94214,2.62250
2526.22952,2.56547
2525.51690,2.56277
2524.80428,2.59551
2524.09167,2.61561
2523.37905,2.58470
2522.66643,2.49641
2521.95381,2.40369
2521.24120,2.35054
2520.52858,2.33302
2519.81596,2.32330
2519.10334,2.30205
2518.39072,2.27397
2517.67811,2.26305
2516.96549,2.29049
2516.25287,2.35333
2515.54025,2.42208
2514.82764,2.45806
2514.11502,2.44250
2513.40240,2.39477
2512.68978,2.35017
2511.97717,2.32481
2511.26455,2.31605
2510.55193,2.32157
2509.83931,2.34146
2509.12670,2.36671
2508.41408,2.37570
2507.70146,2.34817
2506.98884,2.29344
2506.27622,2.24487
2505.56361,2.22351
2504.85099,2.22018
2504.13837,2.21684
2503.42575,2.22170
2502.71314,2.25897
2502.00052,2.33372
2501.28790,2.41147
2500.57528,2.44230
2499.86267,2.42056
2499.15005,2.38626
2498.43743,2.37203
2497.72481,2.39147
2497.01220,2.45586
2496.29958,2.55940
2495.58696,2.64878
2494.87434,2.65027
2494.16173,2.55252
2493.44911,2.45087
2492.73649,2.43004
2492.02387,2.48052
2491.31125,2.51950
2490.59864,2.50396
2489.88602,2.48248
2489.17340,2.46755
2488.46078,2.45262
2487.74817,2.43876
2487.03555,2.42975
2486.32293,2.43229
2485.61031,2.44253
2484.89770,2.43536
2484.18508,2.39101
2483.47246,2.32733
2482.75984,2.28706
2482.04723,2.29456
2481.33461,2.33625
2480.62199,2.38142
2479.90937,2.41152
2479.19675,2.42098
2478.48414,2.40984
2477.77152,2.38638
2477.05890,2.35728
2476.34628,2.32526
2475.63367,2.29157
2474.92105,2.26109
2474.20843,2.23801
2473.49581,2.22410
2472.78320,2.22381
2472.07058,2.25230
2471.35796,2.31524
2470.64534,2.38768
2469.93273,2.43006
2469.22011,2.42766
2468.50749,2.39862
2467.79487,2.36153
2467.08225,2.32622
2466.36964,2.30541
2465.65702,2.30763
2464.94440,2.32926
2464.23178,2.36105
2463.51917,2.39373
2462.80655,2.42436
2462.09393,2.45403
2461.38131,2.48006
2460.66870,2.50553
2459.95608,2.53085
2459.24346,2.53668
2458.53084,2.50580
2457.81823,2.44296
2457.10561,2.35813
2456.39299,2.26000
2455.68037,2.17029
2454.96776,2.11913
2454.25514,2.12647
2453.54252,2.18490
2452.82990,2.25574
2452.11728,2.29589
2451.40467,2.29808
2450.69205,2.28604
2449.97943,2.28049
2449.26681,2.28554
2448.55420,2.29510
2447.84158,2.30747
2447.12896,2.33052
2446.41634,2.36299
2445.70373,2.38510
2444.99111,2.38547
2444.27849,2.38428
2443.56587,2.39003
2442.85326,2.36403
2442.14064,2.28783
2441.42802,2.20184
2440.71540,2.15091
2440.00278,2.15099
2439.29017,2.18514
2438.57755,2.21398
2437.86493,2.20806
2437.15231,2.17986
2436.43970,2.16242
2435.72708,2.17192
2435.01446,2.20792
2434.30184,2.26394
2433.58923,2.32274
2432.87661,2.36210
2432.16399,2.37655
2431.45137,2.37998
2430.73876,2.38758
2430.02614,2.40940
2429.31352,2.44149
2428.60090,2.44266
2427.88828,2.37227
2427.17567,2.25617
2426.46305,2.15384
2425.75043,2.10781
2425.03781,2.12223
2424.32520,2.16915
2423.61258,2.21198
2422.89996,2.23147
2422.18734,2.23804
2421.47473,2.26596
2420.76211,2.34548
2420.04949,2.46398
2419.33687,2.54160
2418.62426,2.49766
2417.91164,2.40154
2417.19902,2.34286
2416.48640,2.34929
2415.77379,2.38909
2415.06117,2.40579
2414.34855,2.36656
2413.63593,2.28516
2412.92331,2.19843
2412.21070,2.13716
2411.49808,2.11631
2410.78546,2.14239
2410.07284,2.21478
2409.36023,2.31045
2408.64761,2.38212
2407.93499,2.39989
2407.22237,2.37742
2406.50976,2.34411
2405.79714,2.31291
2405.08452,2.27558
2404.37190,2.23079
2403.65929,2.20098
2402.94667,2.20896
2402.23405,2.25374
2401.52143,2.31112
2400.80881,2.35420
2400.09620,2.37543
2399.38358,2.38696
2398.67096,2.39383
2397.95834,2.39751
2397.24573,2.39846
2396.53311,2.39622
2395.82049,2.38994
2395.10787,2.37895
2394.39526,2.36322
2393.68264,2.34376
2392.97002,2.32236
2392.25740,2.30088
2391.54479,2.28084
2390.83217,2.26344
2390.11955,2.24964
2389.40693,2.24026
2388.69431,2.23595
2387.98170,2.23710
2387.26908,2.24381
2386.55646,2.25593
2385.84384,2.27310
2385.13123,2.29475
2384.41861,2.32007
2383.70599,2.34812
2382.99337,2.37772
2382.28076,2.40728
2381.56814,2.43469
2380.85552,2.45762
2380.14290,2.47444
2379.43029,2.48501
2378.71767,2.49021
2378.00505,2.49116
2377.29243,2.48862
2376.57982,2.48257
2375.86720,2.47226
2375.15458,2.45688
2374.44196,2.43625
2373.72934,2.41125
2373.01673,2.38370
2372.30411,2.35595
2371.59149,2.33019
2370.87887,2.30771
2370.16626,2.28876
2369.45364,2.27281
2368.74102,2.25915
2368.02840,2.24719
2367.31579,2.23622
2366.60317,2.22534
2365.89055,2.21403
2365.17793,2.20317
2364.46532,2.19409
2363.75270,2.18765
2363.04008,2.18427
2362.32746,2.18429
2361.61484,2.18783
2360.90223,2.19455
2360.18961,2.20371
2359.47699,2.21426
2358.76437,2.22487
2358.05176,2.23425
2357.33914,2.24155
2356.62652,2.24655
2355.91390,2.24958
2355.20129,2.25180
2354.48867,2.25500
2353.77605,2.26068
2353.06343,2.26936
2352.35082,2.28046
2351.63820,2.29251
2350.92558,2.30392
2350.21296,2.31420
2349.50034,2.32464
2348.78773,2.33710
2348.07511,2.35269
2347.36249,2.37093
2346.64987,2.38968
2345.93726,2.40565
2345.22464,2.41594
2344.51202,2.41945
2343.79940,2.41661
2343.08679,2.40869
2342.37417,2.39754
2341.66155,2.38499
2340.94893,2.37263
2340.23632,2.36197
2339.52370,2.35453
2338.81108,2.35176
2338.09846,2.35501
2337.38585,2.36490
2336.67323,2.38058
2335.96061,2.39953
2335.24799,2.41823
2334.53537,2.43311
2333.82276,2.44130
2333.11014,2.44123
2332.39752,2.43253
2331.68490,2.41592
2330.97229,2.39337
2330.25967,2.36773
2329.54705,2.34202
2328.83443,2.31909
2328.12182,2.30150
2327.40920,2.29153
2326.69658,2.29103
2325.98396,2.30092
2325.27135,2.32055
2324.55873,2.34742
2323.84611,2.37737
2323.13349,2.40507
2322.42087,2.42521
2321.70826,2.43486
2320.99564,2.43427
2320.28302,2.42460
2319.57040,2.40677
2318.85779,2.38188
2318.14517,2.35241
2317.43255,2.32168
2316.71993,2.29283
2316.00732,2.26803
2315.29470,2.24841
2314.58208,2.23406
2313.86946,2.22430
2313.15685,2.21833
2312.44423,2.21613
2311.73161,2.21870
2311.01899,2.22752
2310.30638,2.24372
2309.59376,2.26738
2308.88114,2.29697
2308.16852,2.32914
2307.45590,2.35903
2306.74329,2.38109
2306.03067,2.39053
2305.31805,2.38557
2304.60543,2.36838
2303.89282,2.34369
2303.18020,2.31706
2302.46758,2.29367
2301.75496,2.27740
2301.04235,2.27030
2300.32973,2.27236
2299.61711,2.28170
2298.90449,2.29528
2298.19188,2.30990
2297.47926,2.32311
2296.76664,2.33371
2296.05402,2.34151
2295.34140,2.34675
2294.62879,2.34999
2293.91617,2.35212
2293.20355,2.35405
2292.49093,2.35614
2291.77832,2.35771
2291.06570,2.35735
2290.35308,2.35403
2289.64046,2.34808
2288.92785,2.34101
2288.21523,2.33420
2287.50261,2.32768
2286.78999,2.32012
2286.07738,2.30966
2285.36476,2.29514
2284.65214,2.27662
2283.93952,2.25513
2283.22690,2.23208
2282.51429,2.20902
2281.80167,2.18766
2281.08905,2.16952
2280.37643,2.15537
2279.66382,2.14496
2278.95120,2.13735
2278.23858,2.13174
2277.52596,2.12815
2276.81335,2.12750
2276.10073,2.13103
2275.38811,2.13986
2274.67549,2.15495
2273.96288,2.17708
2273.25026,2.20614
2272.53764,2.23975
2271.82502,2.27228
2271.11241,2.29543
2270.39979,2.30140
2269.68717,2.28695
2268.97455,2.25511
2268.26193,2.21284
2267.54932,2.16775
2266.83670,2.12586
2266.12408,2.09098
2265.41146,2.06472
2264.69885,2.04689
2263.98623,2.03614
2263.27361,2.03053
2262.56099,2.02786
2261.84838,2.02586
2261.13576,2.02289
2260.42314,2.01857
2259.71052,2.01384
2258.99791,2.00983
2258.28529,2.00649
2257.57267,2.00232
2256.86005,1.99554
2256.14743,1.98559
2255.43482,1.97350
2254.72220,1.96089
2254.00958,1.94913
2253.29696,1.93937
2252.58435,1.93235
2251.87173,1.92791
2251.15911,1.92452
2250.44649,1.91952
2249.73388,1.91003
2249.02126,1.89600
2248.30864,1.88564
2247.59602,1.88275
2246.88341,1.88298
2246.17079,1.88162
2245.45817,1.87769
2244.74555,1.87029
2244.03293,1.85643
2243.32032,1.83503
2242.60770,1.81060
2241.89508,1.78889
2241.18246,1.76997
2240.46985,1.74875
2239.75723,1.72291
2239.04461,1.69839
2238.33199,1.68373
2237.61938,1.68047
2236.90676,1.68108
2236.19414,1.67454
2235.48152,1.65483
2234.76891,1.62699
2234.05629,1.60364
2233.34367,1.59304
2232.63105,1.59129
2231.91844,1.58726
2231.20582,1.57474
2230.49320,1.55786
2229.78058,1.54598
2229.06796,1.54509
2228.35535,1.55269
2227.64273,1.55887
2226.93011,1.55424
2226.21749,1.53901
2225.50488,1.52250
2224.79226,1.51276
2224.07964,1.50877
2223.36702,1.50401
2222.65441,1.49435
2221.94179,1.48044
2221.22917,1.46529
2220.51655,1.45187
2219.80394,1.44087
2219.09132,1.42940
2218.37870,1.41410
2217.66608,1.39625
2216.95346,1.38190
2216.24085,1.37588
2215.52823,1.37624
2214.81561,1.37543
2214.10299,1.36684
2213.39038,1.35009
2212.67776,1.33013
2211.96514,1.31245
2211.25252,1.30005
2210.53991,1.29355
2209.82729,1.29162
2209.11467,1.29075
2208.40205,1.28652
2207.68944,1.27667
2206.97682,1.26284
2206.26420,1.24891
2205.55158,1.23823
2204.83896,1.23190
2204.12635,1.22829
2203.41373,1.22393
2202.70111,1.21627
2201.98849,1.20576
2201.27588,1.19459
2200.56326,1.18352
2199.85064,1.17172
2199.13802,1.15933
2198.42541,1.14826
2197.71279,1.13953
2197.00017,1.13134
2196.28755,1.12101
2195.57494,1.10828
2194.86232,1.09563
2194.14970,1.08559
2193.43708,1.07814
2192.72447,1.07111
2192.01185,1.06254
2191.29923,1.05266
2190.58661,1.04337
2189.87399,1.03618
2189.16138,1.03100
2188.44876,1.02656
2187.73614,1.02148
2187.02352,1.01507
2186.31091,1.00752
2185.59829,0.99937
2184.88567,0.99088
2184.17305,0.98214
2183.46044,0.97334
2182.74782,0.96469
2182.03520,0.95628
2181.32258,0.94819
2180.60997,0.94071
2179.89735,0.93414
2179.18473,0.92828
2178.47211,0.92240
2177.75949,0.91556
2177.04688,0.90707
2176.33426,0.89723
2175.62164,0.88754
2174.90902,0.87967
2174.19641,0.87385
2173.48379,0.86869
2172.77117,0.86272
2172.05855,0.85581
2171.34594,0.84880
2170.63332,0.84241
2169.92070,0.83673
2169.20808,0.83137
2168.49547,0.82565
2167.78285,0.81889
2167.07023,0.81075
2166.35761,0.80164
2165.64499,0.79266
2164.93238,0.78514
2164.21976,0.77960
2163.50714,0.77517
2162.79452,0.77017
2162.08191,0.76379
2161.36929,0.75698
2160.65667,0.75147
2159.94405,0.74784
2159.23144,0.74479
2158.51882,0.74047
2157.80620,0.73437
2157.09358,0.72758
2156.38097,0.72135
2155.66835,0.71579
2154.95573,0.71023
2154.24311,0.70421
2153.53050,0.69788
2152.81788,0.69164
2152.10526,0.68570
2151.39264,0.67992
2150.68002,0.67388
2149.96741,0.66736
2149.25479,0.66075
2148.54217,0.65486
2147.82955,0.65011
2147.11694,0.64610
2146.40432,0.64198
2145.69170,0.63719
2144.97908,0.63178
2144.26647,0.62633
2143.55385,0.62154
2142.84123,0.61781
2142.12861,0.61483
2141.41600,0.61172
2140.70338,0.60755
2139.99076,0.60211
2139.27814,0.59603
2138.56552,0.59033
2137.85291,0.58574
2137.14029,0.58226
2136.42767,0.57917
2135.71505,0.57555
2135.00244,0.57111
2134.28982,0.56642
2133.57720,0.56218
2132.86458,0.55831
2132.15197,0.55415
2131.43935,0.54934
2130.72673,0.54419
2130.01411,0.53918
2129.30150,0.53449
2128.58888,0.53006
2127.87626,0.52575
2127.16364,0.52156
2126.45103,0.51751
2125.73841,0.51360
2125.02579,0.50981
2124.31317,0.50606
2123.60055,0.50234
2122.88794,0.49862
2122.17532,0.49484
2121.46270,0.49097
2120.75008,0.48724
2120.03747,0.48399
2119.32485,0.48128
2118.61223,0.47874
2117.89961,0.47584
2117.18700,0.47239
2116.47438,0.46864
2115.76176,0.46494
2115.04914,0.46137
2114.33653,0.45780
2113.62391,0.45420
2112.91129,0.45078
2112.19867,0.44771
2111.48605,0.44502
2110.77344,0.44251
2110.06082,0.43986
2109.34820,0.43678
2108.63558,0.43331
2107.92297,0.42978
2107.21035,0.42646
2106.49773,0.42329
2105.78511,0.42007
2105.07250,0.41676
2104.35988,0.41354
2103.64726,0.41068
2102.93464,0.40820
2102.22203,0.40585
2101.50941,0.40309
2100.79679,0.39968
2100.08417,0.39599
2099.37155,0.39267
2098.65894,0.38983
2097.94632,0.38737
2097.23370,0.38517
2096.52108,0.38305
2095.80847,0.38085
2095.09585,0.37844
2094.38323,0.37581
2093.67061,0.37302
2092.95800,0.37020
2092.24538,0.36741
2091.53276,0.36468
2090.82014,0.36200
2090.10753,0.35937
2089.39491,0.35678
2088.68229,0.35422
2087.96967,0.35169
2087.25706,0.34912
2086.54444,0.34649
2085.83182,0.34380
2085.11920,0.34113
2084.40658,0.33859
2083.69397,0.33625
2082.98135,0.33413
2082.26873,0.33223
2081.55611,0.33051
2080.84350,0.32891
2080.13088,0.32733
2079.41826,0.32569
2078.70564,0.32391
2077.99303,0.32195
2077.28041,0.31986
2076.56779,0.31770
2075.85517,0.31554
2075.14256,0.31335
2074.42994,0.31110
2073.71732,0.30878
2073.00470,0.30643
2072.29208,0.30417
2071.57947,0.30211
2070.86685,0.30032
2070.15423,0.29878
2069.44161,0.29742
2068.72900,0.29615
2068.01638,0.29488
2067.30376,0.29351
2066.59114,0.29202
2065.87853,0.29041
2065.16591,0.28868
2064.45329,0.28683
2063.74067,0.28484
2063.02806,0.28270
2062.31544,0.28047
2061.60282,0.27826
2060.89020,0.27614
2060.17758,0.27418
2059.46497,0.27239
2058.75235,0.27079
2058.03973,0.26935
2057.32711,0.26802
2056.61450,0.26673
2055.90188,0.26542
2055.18926,0.26404
2054.47664,0.26259
2053.76403,0.26113
2053.05141,0.25970
2052.33879,0.25833
2051.62617,0.25699
2050.91356,0.25563
2050.20094,0.25424
2049.48832,0.25284
2048.77570,0.25150
2048.06309,0.25028
2047.35047,0.24923
2046.63785,0.24835
2045.92523,0.24758
2045.21261,0.24680
2044.50000,0.24591
2043.78738,0.24482
2043.07476,0.24352
2042.36214,0.24205
2041.64953,0.24045
2040.93691,0.23877
2040.22429,0.23699
2039.51167,0.23515
2038.79906,0.23329
2038.08644,0.23149
2037.37382,0.22986
2036.66120,0.22847
2035.94859,0.22735
2035.23597,0.22648
2034.52335,0.22577
2033.81073,0.22513
2033.09811,0.22444
2032.38550,0.22360
2031.67288,0.22256
2030.96026,0.22131
2030.24764,0.21991
2029.53503,0.21849
2028.82241,0.21714
2028.10979,0.21598
2027.39717,0.21503
2026.68456,0.21426
2025.97194,0.21359
2025.25932,0.21294
2024.54670,0.21225
2023.83409,0.21150
2023.12147,0.21069
2022.40885,0.20982
2021.69623,0.20890
2020.98361,0.20795
2020.27100,0.20698
2019.55838,0.20596
2018.84576,0.20487
2018.13314,0.20371
2017.42053,0.20251
2016.70791,0.20134
2015.99529,0.20028
2015.28267,0.19939
2014.57006,0.19867
2013.85744,0.19806
2013.14482,0.19748
2012.43220,0.19686
2011.71959,0.19617
2011.00697,0.19543
2010.29435,0.19468
2009.58173,0.19394
2008.86912,0.19325
2008.15650,0.19261
2007.44388,0.19200
2006.73126,0.19141
2006.01864,0.19082
2005.30603,0.19022
2004.59341,0.18959
2003.88079,0.18892
2003.16817,0.18817
2002.45556,0.18730
2001.74294,0.18632
2001.03032,0.18528
2000.31770,0.18425
1999.60509,0.18332
1998.89247,0.18251
1998.17985,0.18183
1997.46723,0.18124
1996.75462,0.18071
1996.04200,0.18021
1995.32938,0.17972
1994.61676,0.17922
1993.90414,0.17868
1993.19153,0.17810
1992.47891,0.17752
1991.76629,0.17696
1991.05367,0.17644
1990.34106,0.17592
1989.62844,0.17535
1988.91582,0.17468
1988.20320,0.17394
1987.49059,0.17321
1986.77797,0.17256
1986.06535,0.17204
1985.35273,0.17159
1984.64012,0.17116
1983.92750,0.17069
1983.21488,0.17014
1982.50226,0.16951
1981.78964,0.16881
1981.07703,0.16808
1980.36441,0.16740
1979.65179,0.16683
1978.93917,0.16641
1978.22656,0.16616
1977.51394,0.16598
1976.80132,0.16581
1976.08870,0.16560
1975.37609,0.16537
1974.66347,0.16518
1973.95085,0.16505
1973.23823,0.16497
1972.52562,0.16488
1971.81300,0.16471
1971.10038,0.16443
1970.38776,0.16400
1969.67515,0.16343
1968.96253,0.16275
1968.24991,0.16205
1967.53729,0.16144
1966.82467,0.16101
1966.11206,0.16075
1965.39944,0.16059
1964.68682,0.16042
1963.97420,0.16019
1963.26159,0.15988
1962.54897,0.15955
1961.83635,0.15923
1961.12373,0.15894
1960.41112,0.15866
1959.69850,0.15832
1958.98588,0.15791
1958.27326,0.15742
1957.56065,0.15689
1956.84803,0.15636
1956.13541,0.15588
1955.42279,0.15549
1954.71017,0.15518
1953.99756,0.15494
1953.28494,0.15475
1952.57232,0.15459
1951.85970,0.15446
1951.14709,0.15434
1950.43447,0.15419
1949.72185,0.15399
1949.00923,0.15372
1948.29662,0.15339
1947.58400,0.15300
1946.87138,0.15261
1946.15876,0.15229
1945.44615,0.15209
1944.73353,0.15203
1944.02091,0.15210
1943.30829,0.15227
1942.59567,0.15247
1941.88306,0.15263
1941.17044,0.15269
1940.45782,0.15262
1939.74520,0.15247
1939.03259,0.15230
1938.31997,0.15217
1937.60735,0.15212
1936.89473,0.15216
1936.18212,0.15224
1935.46950,0.15228
1934.75688,0.15224
1934.04426,0.15208
1933.33165,0.15184
1932.61903,0.15160
1931.90641,0.15141
1931.19379,0.15131
1930.48118,0.15130
1929.76856,0.15139
1929.05594,0.15155
1928.34332,0.15173
1927.63070,0.15185
1926.91809,0.15186
1926.20547,0.15175
1925.49285,0.15155
1924.78023,0.15132
1924.06762,0.15109
1923.35500,0.15088
1922.64238,0.15070
1921.92976,0.15056
1921.21715,0.15049
1920.50453,0.15048
1919.79191,0.15048
1919.07929,0.15048
1918.36668,0.15050
1917.65406,0.15056
1916.94144,0.15065
1916.22882,0.15076
1915.51620,0.15084
1914.80359,0.15089
1914.09097,0.15092
1913.37835,0.15091
1912.66573,0.15090
1911.95312,0.15088
1911.24050,0.15089
1910.52788,0.15093
1909.81526,0.15101
1909.10265,0.15113
1908.39003,0.15127
1907.67741,0.15142
1906.96479,0.15156
1906.25218,0.15167
1905.53956,0.15175
1904.82694,0.15180
1904.11432,0.15187
1903.40171,0.15196
1902.68909,0.15205
1901.97647,0.15213
1901.26385,0.15216
1900.55123,0.15216
1899.83862,0.15215
1899.12600,0.15215
1898.41338,0.15216
1897.70076,0.15221
1896.98815,0.15231
1896.27553,0.15247
1895.56291,0.15269
1894.85029,0.15295
1894.13768,0.15323
1893.42506,0.15351
1892.71244,0.15377
1891.99982,0.15400
1891.28721,0.15422
1890.57459,0.15445
1889.86197,0.15470
1889.14935,0.15499
1888.43673,0.15532
1887.72412,0.15567
1887.01150,0.15606
1886.29888,0.15645
1885.58626,0.15684
1884.87365,0.15719
1884.16103,0.15747
1883.44841,0.15767
1882.73579,0.15783
1882.02318,0.15801
1881.31056,0.15826
1880.59794,0.15860
1879.88532,0.15901
1879.17271,0.15945
1878.46009,0.15989
1877.74747,0.16029
1877.03485,0.16062
1876.32223,0.16083
1875.60962,0.16094
1874.89700,0.16099
1874.18438,0.16105
1873.47176,0.16117
1872.75915,0.16139
1872.04653,0.16169
1871.33391,0.16210
1870.62129,0.16262
1869.90868,0.16327
1869.19606,0.16401
1868.48344,0.16476
1867.77082,0.16547
1867.05821,0.16607
1866.34559,0.16655
1865.63297,0.16691
1864.92035,0.16717
1864.20774,0.16737
1863.49512,0.16755
1862.78250,0.16774
1862.06988,0.16797
1861.35726,0.16824
1860.64465,0.16857
1859.93203,0.16893
1859.21941,0.16930
1858.50679,0.16964
1857.79418,0.16993
1857.08156,0.17019
1856.36894,0.17045
1855.65632,0.17078
1854.94371,0.17123
1854.23109,0.17178
1853.51847,0.17242
1852.80585,0.17309
1852.09324,0.17375
1851.38062,0.17440
1850.66800,0.17499
1849.95538,0.17552
1849.24276,0.17594
1848.53015,0.17621
1847.81753,0.17632
1847.10491,0.17630
1846.39229,0.17626
1845.67968,0.17632
1844.96706,0.17662
1844.25444,0.17723
1843.54182,0.17812
1842.82921,0.17920
1842.11659,0.18035
1841.40397,0.18144
1840.69135,0.18234
1839.97874,0.18295
1839.26612,0.18326
1838.55350,0.18336
1837.84088,0.18338
1837.12826,0.18343
1836.41565,0.18361
1835.70303,0.18398
1834.99041,0.18453
1834.27779,0.18526
1833.56518,0.18612
1832.85256,0.18704
1832.13994,0.18796
1831.42732,0.18884
1830.71471,0.18968
1830.00209,0.19047
1829.28947,0.19120
1828.57685,0.19187
1827.86424,0.19244
1827.15162,0.19292
1826.43900,0.19329
1825.72638,0.19359
1825.01377,0.19385
1824.30115,0.19412
1823.58853,0.19441
1822.87591,0.19470
1822.16329,0.19496
1821.45068,0.19518
1820.73806,0.19540
1820.02544,0.19564
1819.31282,0.19595
1818.60021,0.19635
1817.88759,0.19682
1817.17497,0.19733
1816.46235,0.19787
1815.74974,0.19843
1815.03712,0.19906
1814.32450,0.19978
1813.61188,0.20060
1812.89927,0.20147
1812.18665,0.20233
1811.47403,0.20315
1810.76141,0.20394
1810.04879,0.20469
1809.33618,0.20542
1808.62356,0.20614
1807.91094,0.20686
1807.19832,0.20754
1806.48571,0.20814
1805.77309,0.20857
1805.06047,0.20883
1804.34785,0.20896
1803.63524,0.20906
1802.92262,0.20923
1802.21000,0.20954
1801.49738,0.21001
1800.78477,0.21061
1800.07215,0.21134
1799.35953,0.21216
1798.64691,0.21303
1797.93429,0.21389
1797.22168,0.21467
1796.50906,0.21532
1795.79644,0.21581
1795.08382,0.21619
1794.37121,0.21651
1793.65859,0.21686
1792.94597,0.21728
1792.23335,0.21778
1791.52074,0.21839
1790.80812,0.21908
1790.09550,0.21981
1789.38288,0.22053
1788.67027,0.22119
1787.95765,0.22179
1787.24503,0.22235
1786.53241,0.22294
1785.81980,0.22355
1785.10718,0.22417
1784.39456,0.22475
1783.68194,0.22524
1782.96932,0.22565
1782.25671,0.22604
1781.54409,0.22650
1780.83147,0.22707
1780.11885,0.22775
1779.40624,0.22849
1778.69362,0.22922
1777.98100,0.22993
1777.26838,0.23062
1776.55577,0.23129
1775.84315,0.23195
1775.13053,0.23261
1774.41791,0.23331
1773.70530,0.23406
1772.99268,0.23489
1772.28006,0.23577
1771.56744,0.23664
1770.85482,0.23746
1770.14221,0.23820
1769.42959,0.23887
1768.71697,0.23947
1768.00435,0.24001
1767.29174,0.24049
1766.57912,0.24094
1765.86650,0.24142
1765.15388,0.24204
1764.44127,0.24285
1763.72865,0.24386
1763.01603,0.24500
1762.30341,0.24616
1761.59080,0.24718
1760.87818,0.24797
1760.16556,0.24851
1759.45294,0.24884
1758.74032,0.24907
1758.02771,0.24931
1757.31509,0.24964
1756.60247,0.25009
1755.88985,0.25062
1755.17724,0.25119
1754.46462,0.25180
1753.75200,0.25252
1753.03938,0.25338
1752.32677,0.25439
1751.61415,0.25551
1750.90153,0.25668
1750.18891,0.25780
1749.47630,0.25884
1748.76368,0.25981
1748.05106,0.26075
1747.33844,0.26172
1746.62583,0.26278
1745.91321,0.26390
1745.20059,0.26505
1744.48797,0.26614
1743.77535,0.26710
1743.06274,0.26786
1742.35012,0.26843
1741.63750,0.26885
1740.92488,0.26920
1740.21227,0.26954
1739.49965,0.26986
1738.78703,0.27010
1738.07441,0.27024
1737.36180,0.27035
1736.64918,0.27058
1735.93656,0.27106
1735.22394,0.27191
1734.51133,0.27312
1733.79871,0.27459
1733.08609,0.27617
1732.37347,0.27775
1731.66085,0.27926
1730.94824,0.28064
1730.23562,0.28186
1729.52300,0.28290
1728.81038,0.28376
1728.09777,0.28446
1727.38515,0.28507
1726.67253,0.28562
1725.95991,0.28611
1725.24730,0.28657
1724.53468,0.28700
1723.82206,0.28738
1723.10944,0.28770
1722.39683,0.28794
1721.68421,0.28810
1720.97159,0.28827
1720.25897,0.28859
1719.54636,0.28929
1718.83374,0.29055
1718.12112,0.29236
1717.40850,0.29452
1716.69588,0.29670
1715.98327,0.29866
1715.27065,0.30026
1714.55803,0.30150
1713.84541,0.30240
1713.13280,0.30304
1712.42018,0.30350
1711.70756,0.30395
1710.99494,0.30450
1710.28233,0.30522
1709.56971,0.30610
1708.85709,0.30705
1708.14447,0.30798
1707.43186,0.30886
1706.71924,0.30968
1706.00662,0.31045
1705.29400,0.31117
1704.58138,0.31183
1703.86877,0.31242
1703.15615,0.31297
1702.44353,0.31354
1701.73091,0.31430
1701.01830,0.31540
1700.30568,0.31688
1699.59306,0.31859
1698.88044,0.32026
1698.16783,0.32171
1697.45521,0.32287
1696.74259,0.32381
1696.02997,0.32463
1695.31736,0.32547
1694.60474,0.32644
1693.89212,0.32765
1693.17950,0.32914
1692.46688,0.33082
1691.75427,0.33256
1691.04165,0.33418
1690.32903,0.33558
1689.61641,0.33674
1688.90380,0.33771
1688.19118,0.33858
1687.47856,0.33948
1686.76594,0.34046
1686.05333,0.34157
1685.34071,0.34280
1684.62809,0.34410
1683.91547,0.34539
1683.20286,0.34656
1682.49024,0.34756
1681.77762,0.34845
1681.06500,0.34934
1680.35239,0.35034
1679.63977,0.35145
1678.92715,0.35260
1678.21453,0.35366
1677.50191,0.35463
1676.78930,0.35559
1676.07668,0.35670
1675.36406,0.35803
1674.65144,0.35953
1673.93883,0.36105
1673.22621,0.36248
1672.51359,0.36376
1671.80097,0.36494
1671.08836,0.36605
1670.37574,0.36720
1669.66312,0.36848
1668.95050,0.36991
1668.23789,0.37142
1667.52527,0.37288
1666.81265,0.37422
1666.10003,0.37545
1665.38741,0.37666
1664.67480,0.37796
1663.96218,0.37941
1663.24956,0.38100
1662.53694,0.38257
1661.82433,0.38397
1661.11171,0.38510
1660.39909,0.38598
1659.68647,0.38674
1658.97386,0.38750
1658.26124,0.38838
1657.54862,0.38937
1656.83600,0.39045
1656.12339,0.39157
1655.41077,0.39274
1654.69815,0.39400
1653.98553,0.39540
1653.27291,0.39696
1652.56030,0.39864
1651.84768,0.40035
1651.13506,0.40206
1650.42244,0.40380
1649.70983,0.40560
1648.99721,0.40748
1648.28459,0.40937
1647.57197,0.41115
1646.85936,0.41273
1646.14674,0.41408
1645.43412,0.41527
1644.72150,0.41640
1644.00889,0.41762
1643.29627,0.41897
1642.58365,0.42039
1641.87103,0.42175
1641.15842,0.42292
1640.44580,0.42389
1639.73318,0.42472
1639.02056,0.42551
1638.30794,0.42632
1637.59533,0.42718
1636.88271,0.42810
1636.17009,0.42914
1635.45747,0.43039
1634.74486,0.43185
1634.03224,0.43345
1633.31962,0.43511
1632.60700,0.43679
1631.89439,0.43846
1631.18177,0.44011
1630.46915,0.44172
1629.75653,0.44331
1629.04392,0.44490
1628.33130,0.44650
1627.61868,0.44807
1626.90606,0.44956
1626.19344,0.45091
1625.48083,0.45209
1624.76821,0.45310
1624.05559,0.45395
1623.34297,0.45468
1622.63036,0.45535
1621.91774,0.45605
1621.20512,0.45684
1620.49250,0.45777
1619.77989,0.45886
1619.06727,0.46017
1618.35465,0.46175
1617.64203,0.46361
1616.92942,0.46565
1616.21680,0.46763
1615.50418,0.46936
1614.79156,0.47073
1614.07894,0.47177
1613.36633,0.47260
1612.65371,0.47331
1611.94109,0.47403
1611.22847,0.47487
1610.51586,0.47585
1609.80324,0.47695
1609.09062,0.47813
1608.37800,0.47939
1607.66539,0.48074
1606.95277,0.48223
1606.24015,0.48387
1605.52753,0.48568
1604.81492,0.48757
1604.10230,0.48942
1603.38968,0.49103
1602.67706,0.49226
1601.96445,0.49307
1601.25183,0.49352
1600.53921,0.49374
1599.82659,0.49384
1599.11397,0.49394
1598.40136,0.49410
1597.68874,0.49436
1596.97612,0.49475
1596.26350,0.49532
1595.55089,0.49618
1594.83827,0.49741
1594.12565,0.49900
1593.41303,0.50080
1592.70042,0.50263
1591.98780,0.50429
1591.27518,0.50571
1590.56256,0.50692
1589.84995,0.50799
1589.13733,0.50898
1588.42471,0.50999
1587.71209,0.51112
1586.99947,0.51242
1586.28686,0.51391
1585.57424,0.51556
1584.86162,0.51728
1584.14900,0.51893
1583.43639,0.52036
1582.72377,0.52139
1582.01115,0.52192
1581.29853,0.52192
1580.58592,0.52149
1579.87330,0.52084
1579.16068,0.52021
1578.44806,0.51993
1577.73545,0.52028
1577.02283,0.52138
1576.31021,0.52308
1575.59759,0.52494
1574.88497,0.52647
1574.17236,0.52741
1573.45974,0.52784
1572.74712,0.52803
1572.03450,0.52829
1571.32189,0.52881
1570.60927,0.52965
1569.89665,0.53070
1569.18403,0.53172
1568.47142,0.53256
1567.75880,0.53317
1567.04618,0.53367
1566.33356,0.53415
1565.62095,0.53460
1564.90833,0.53492
1564.19571,0.53493
1563.48309,0.53451
1562.77048,0.53365
1562.05786,0.53243
1561.34524,0.53106
1560.63262,0.52995
1559.92000,0.52962
1559.20739,0.53040
1558.49477,0.53217
1557.78215,0.53436
1557.06953,0.53632
1556.35692,0.53765
1555.64430,0.53828
1554.93168,0.53836
1554.21906,0.53817
1553.50645,0.53796
1552.79383,0.53785
1552.08121,0.53790
1551.36859,0.53805
1550.65598,0.53819
1549.94336,0.53822
1549.23074,0.53812
1548.51812,0.53788
1547.80550,0.53755
1547.09289,0.53715
1546.38027,0.53673
1545.66765,0.53631
1544.95503,0.53589
1544.24242,0.53541
1543.52980,0.53483
1542.81718,0.53417
1542.10456,0.53353
1541.39195,0.53306
1540.67933,0.53292
1539.96671,0.53314
1539.25409,0.53354
1538.54148,0.53383
1537.82886,0.53377
1537.11624,0.53331
1536.40362,0.53254
1535.69100,0.53163
1534.97839,0.53074
1534.26577,0.53004
1533.55315,0.52958
1532.84053,0.52930
1532.12792,0.52898
1531.41530,0.52841
1530.70268,0.52757
1529.99006,0.52662
1529.27745,0.52581
1528.56483,0.52526
1527.85221,0.52498
1527.13959,0.52479
1526.42698,0.52450
1525.71436,0.52397
1525.00174,0.52319
1524.28912,0.52236
1523.57651,0.52175
1522.86389,0.52163
1522.15127,0.52209
1521.43865,0.52299
1520.72603,0.52407
1520.01342,0.52508
1519.30080,0.52581
1518.58818,0.52618
1517.87556,0.52622
1517.16295,0.52598
1516.45033,0.52552
1515.73771,0.52491
1515.02509,0.52422
1514.31248,0.52356
1513.59986,0.52297
1512.88724,0.52243
1512.17462,0.52183
1511.46201,0.52103
1510.74939,0.51999
1510.03677,0.51881
1509.32415,0.51773
1508.61153,0.51705
1507.89892,0.51700
1507.18630,0.51758
1506.47368,0.51854
1505.76106,0.51955
1505.04845,0.52038
1504.33583,0.52095
1503.62321,0.52131
1502.91059,0.52154
1502.19798,0.52170
1501.48536,0.52180
1500.77274,0.52185
1500.06012,0.52191
1499.34751,0.52206
1498.63489,0.52236
1497.92227,0.52278
1497.20965,0.52327
1496.49704,0.52372
1495.78442,0.52402
1495.07180,0.52416
1494.35918,0.52421
1493.64656,0.52426
1492.93395,0.52446
1492.22133,0.52490
1491.50871,0.52563
1490.79609,0.52664
1490.08348,0.52786
1489.37086,0.52923
1488.65824,0.53071
1487.94562,0.53224
1487.23301,0.53373
1486.52039,0.53509
1485.80777,0.53623
1485.09515,0.53710
1484.38254,0.53770
1483.66992,0.53807
1482.95730,0.53829
1482.24468,0.53847
1481.53206,0.53871
1480.81945,0.53904
1480.10683,0.53944
1479.39421,0.53981
1478.68159,0.54004
1477.96898,0.54003
1477.25636,0.53974
1476.54374,0.53922
1475.83112,0.53858
1475.11851,0.53792
1474.40589,0.53740
1473.69327,0.53715
1472.98065,0.53724
1472.26804,0.53761
1471.55542,0.53804
1470.84280,0.53828
1470.13018,0.53817
1469.41756,0.53775
1468.70495,0.53712
1467.99233,0.53642
1467.27971,0.53570
1466.56709,0.53498
1465.85448,0.53423
1465.14186,0.53340
1464.42924,0.53238
1463.71662,0.53108
1463.00401,0.52945
1462.29139,0.52750
1461.57877,0.52527
1460.86615,0.52284
1460.15354,0.52031
1459.44092,0.51785
1458.72830,0.51571
1458.01568,0.51408
1457.30307,0.51306
1456.59045,0.51250
1455.87783,0.51209
1455.16521,0.51152
1454.45259,0.51066
1453.73998,0.50948
1453.02736,0.50801
1452.31474,0.50625
1451.60212,0.50418
1450.88951,0.50182
1450.17689,0.49928
1449.46427,0.49671
1448.75165,0.49427
1448.03904,0.49205
1447.32642,0.49004
1446.61380,0.48818
1445.90118,0.48632
1445.18857,0.48433
1444.47595,0.48212
1443.76333,0.47970
1443.05071,0.47715
1442.33809,0.47461
1441.62548,0.47218
1440.91286,0.46992
1440.20024,0.46777
1439.48762,0.46564
1438.77501,0.46345
1438.06239,0.46120
1437.34977,0.45899
1436.63715,0.45686
1435.92454,0.45473
1435.21192,0.45242
1434.49930,0.44979
1433.78668,0.44682
1433.07407,0.44361
1432.36145,0.44039
1431.64883,0.43734
1430.93621,0.43458
1430.22359,0.43209
1429.51098,0.42975
1428.79836,0.42744
1428.08574,0.42507
1427.37312,0.42258
1426.66051,0.41997
1425.94789,0.41726
1425.23527,0.41449
1424.52265,0.41180
1423.81004,0.40931
1423.09742,0.40710
1422.38480,0.40515
1421.67218,0.40334
1420.95957,0.40150
1420.24695,0.39950
1419.53433,0.39732
1418.82171,0.39500
1418.10910,0.39263
1417.39648,0.39029
1416.68386,0.38807
1415.97124,0.38606
1415.25862,0.38433
1414.54601,0.38285
1413.83339,0.38148
1413.12077,0.38003
1412.40815,0.37833
1411.69554,0.37626
1410.98292,0.37387
1410.27030,0.37130
1409.55768,0.36871
1408.84507,0.36626
1408.13245,0.36403
1407.41983,0.36202
1406.70721,0.36019
1405.99460,0.35851
1405.28198,0.35696
1404.56936,0.35554
1403.85674,0.35419
1403.14412,0.35285
1402.43151,0.35144
1401.71889,0.34997
1401.00627,0.34854
1400.29365,0.34727
1399.58104,0.34626
1398.86842,0.34554
1398.15580,0.34501
1397.44318,0.34455
1396.73057,0.34398
1396.01795,0.34320
1395.30533,0.34219
1394.59271,0.34099
1393.88010,0.33972
1393.16748,0.33854
1392.45486,0.33754
1391.74224,0.33674
1391.02962,0.33607
1390.31701,0.33546
1389.60439,0.33485
1388.89177,0.33424
1388.17915,0.33365
1387.46654,0.33306
1386.75392,0.33245
1386.04130,0.33181
1385.32868,0.33118
1384.61607,0.33064
1383.90345,0.33028
1383.19083,0.33013
1382.47821,0.33015
1381.76560,0.33022
1381.05298,0.33022
1380.34036,0.33005
1379.62774,0.32970
1378.91513,0.32918
1378.20251,0.32856
1377.48989,0.32788
1376.77727,0.32718
1376.06465,0.32651
1375.35204,0.32597
1374.63942,0.32566
1373.92680,0.32566
1373.21418,0.32594
1372.50157,0.32642
1371.78895,0.32695
1371.07633,0.32745
1370.36371,0.32786
1369.65110,0.32815
1368.93848,0.32830
1368.22586,0.32828
1367.51324,0.32807
1366.80063,0.32769
1366.08801,0.32724
1365.37539,0.32688
1364.66277,0.32676
1363.95015,0.32695
1363.23754,0.32742
1362.52492,0.32808
1361.81230,0.32883
1361.09968,0.32960
1360.38707,0.33032
1359.67445,0.33093
1358.96183,0.33137
1358.24921,0.33164
1357.53660,0.33180
1356.82398,0.33198
1356.11136,0.33227
1355.39874,0.33274
1354.68613,0.33336
1353.97351,0.33407
1353.26089,0.33476
1352.54827,0.33534
1351.83565,0.33575
1351.12304,0.33600
1350.41042,0.33618
1349.69780,0.33639
1348.98518,0.33672
1348.27257,0.33719
1347.55995,0.33775
1346.84733,0.33837
1346.13471,0.33905
1345.42210,0.33980
1344.70948,0.34065
1343.99686,0.34163
1343.28424,0.34277
1342.57163,0.34404
1341.85901,0.34543
1341.14639,0.34688
1340.43377,0.34830
1339.72116,0.34958
1339.00854,0.35062
1338.29592,0.35137
1337.58330,0.35190
1336.87068,0.35241
1336.15807,0.35313
1335.44545,0.35422
1334.73283,0.35569
1334.02021,0.35745
1333.30760,0.35937
1332.59498,0.36129
1331.88236,0.36315
1331.16974,0.36487
1330.45713,0.36645
1329.74451,0.36791
1329.03189,0.36928
1328.31927,0.37060
1327.60666,0.37192
1326.89404,0.37325
1326.18142,0.37463
1325.46880,0.37607
1324.75618,0.37757
1324.04357,0.37915
1323.33095,0.38084
1322.61833,0.38263
1321.90571,0.38447
1321.19310,0.38633
1320.48048,0.38818
1319.76786,0.39006
1319.05524,0.39204
1318.34263,0.39420
1317.63001,0.39657
1316.91739,0.39913
1316.20477,0.40185
1315.49216,0.40473
1314.77954,0.40778
1314.06692,0.41097
1313.35430,0.41415
1312.64169,0.41713
1311.92907,0.41977
1311.21645,0.42208
1310.50383,0.42417
1309.79121,0.42620
1309.07860,0.42834
1308.36598,0.43071
1307.65336,0.43345
1306.94074,0.43660
1306.22813,0.44018
1305.51551,0.44411
1304.80289,0.44830
1304.09027,0.45269
1303.37766,0.45717
1302.66504,0.46165
1301.95242,0.46603
1301.23980,0.47025
1300.52719,0.47429
1299.81457,0.47817
1299.10195,0.48188
1298.38933,0.48548
1297.67671,0.48907
1296.96410,0.49282
1296.25148,0.49686
1295.53886,0.50122
1294.82624,0.50583
1294.11363,0.51060
1293.40101,0.51547
1292.68839,0.52043
1291.97577,0.52556
1291.26316,0.53092
1290.55054,0.53654
1289.83792,0.54240
1289.12530,0.54844
1288.41269,0.55459
1287.70007,0.56081
1286.98745,0.56710
1286.27483,0.57356
1285.56221,0.58031
1284.84960,0.58742
1284.13698,0.59488
1283.42436,0.60262
1282.71174,0.61053
1281.99913,0.61854
1281.28651,0.62665
1280.57389,0.63492
1279.86127,0.64334
1279.14866,0.65188
1278.43604,0.66044
1277.72342,0.66906
1277.01080,0.67785
1276.29819,0.68701
1275.58557,0.69666
1274.87295,0.70686
1274.16033,0.71750
1273.44772,0.72845
1272.73510,0.73957
1272.02248,0.75089
1271.30986,0.76255
1270.59724,0.77471
1269.88463,0.78745
1269.17201,0.80071
1268.45939,0.81437
1267.74677,0.82829
1267.03416,0.84223
1266.32154,0.85596
1265.60892,0.86931
1264.89630,0.88232
1264.18369,0.89538
1263.47107,0.90902
1262.75845,0.92367
1262.04583,0.93952
1261.33322,0.95650
1260.62060,0.97440
1259.90798,0.99287
1259.19536,1.01137
1258.48274,1.02927
1257.77013,1.04607
1257.05751,1.06156
1256.34489,1.07583
1255.63227,1.08917
1254.91966,1.10188
1254.20704,1.11414
1253.49442,1.12604
1252.78180,1.13766
1252.06919,1.14906
1251.35657,1.16020
1250.64395,1.17080
1249.93133,1.18047
1249.21872,1.18898
1248.50610,1.19650
1247.79348,1.20363
1247.08086,1.21126
1246.36824,1.22020
1245.65563,1.23086
1244.94301,1.24299
1244.23039,1.25572
1243.51777,1.26787
1242.80516,1.27840
1242.09254,1.28679
1241.37992,1.29304
1240.66730,1.29748
1239.95469,1.30058
1239.24207,1.30276
1238.52945,1.30430
1237.81683,1.30541
1237.10422,1.30629
1236.39160,1.30710
1235.67898,1.30790
1234.96636,1.30852
1234.25375,1.30872
1233.54113,1.30828
1232.82851,1.30707
1232.11589,1.30495
1231.40327,1.30186
1230.69066,1.29811
1229.97804,1.29438
1229.26542,1.29147
1228.55280,1.28983
1227.84019,1.28956
1227.12757,1.29048
1226.41495,1.29236
1225.70233,1.29494
1224.98972,1.29798
1224.27710,1.30128
1223.56448,1.30474
1222.85186,1.30837
1222.13925,1.31214
1221.42663,1.31578
1220.71401,1.31867
1220.00139,1.32000
1219.28877,1.31922
1218.57616,1.31649
1217.86354,1.31269
1217.15092,1.30899
1216.43830,1.30638
1215.72569,1.30525
1215.01307,1.30528
1214.30045,1.30563
1213.58783,1.30531
1212.87522,1.30382
1212.16260,1.30135
1211.44998,1.29851
1210.73736,1.29577
1210.02475,1.29315
1209.31213,1.29025
1208.59951,1.28659
1207.88689,1.28203
1207.17427,1.27687
1206.46166,1.27166
1205.74904,1.26696
1205.03642,1.26300
1204.32380,1.25961
1203.61119,1.25625
1202.89857,1.25222
1202.18595,1.24703
1201.47333,1.24070
1200.76072,1.23412
1200.04810,1.22901
1199.33548,1.22755
1198.62286,1.23130
1197.91025,1.23868
1197.19763,1.24643
1196.48501,1.25230
1195.77239,1.25528
1195.05978,1.25470
1194.34716,1.25135
1193.63454,1.24858
1192.92192,1.25010
1192.20930,1.25596
1191.49669,1.26143
1190.78407,1.26016
1190.07145,1.24958
1189.35883,1.23371
1188.64622,1.22046
1187.93360,1.21548
1187.22098,1.21833
1186.50836,1.22411
1185.79575,1.22816
1185.08313,1.22889
1184.37051,1.22689
1183.65789,1.22375
1182.94528,1.22181
1182.23266,1.22315
1181.52004,1.22764
1180.80742,1.23270
1180.09480,1.23538
1179.38219,1.23423
1178.66957,1.22966
1177.95695,1.22316
1177.24433,1.21571
1176.53172,1.20685
1175.81910,1.19570
1175.10648,1.18265
1174.39386,1.16994
1173.68125,1.16035
1172.96863,1.15445
1172.25601,1.14963
1171.54339,1.14285
1170.83078,1.13450
1170.11816,1.12885
1169.40554,1.12987
1168.69292,1.13729
1167.98030,1.14657
1167.26769,1.15151
1166.55507,1.14768
1165.84245,1.13524
1165.12983,1.11965
1164.41722,1.10882
1163.70460,1.10729
1162.99198,1.11224
1162.27936,1.11595
1161.56675,1.11261
1160.85413,1.10258
1160.14151,1.09003
1159.42889,1.07809
1158.71628,1.06740
1158.00366,1.05837
1157.29104,1.05206
1156.57842,1.04785
1155.86581,1.04210
1155.15319,1.03187
1154.44057,1.01940
1153.72795,1.01071
1153.01533,1.00976
1152.30272,1.01462
1151.59010,1.01876
1150.87748,1.01580
1150.16486,1.00466
1149.45225,0.99091
1148.73963,0.98190
1148.02701,0.98022
1147.31439,0.98185
1146.60178,0.98075
1145.88916,0.97467
1145.17654,0.96605
1144.46392,0.95852
1143.75131,0.95397
1143.03869,0.95273
1142.32607,0.95437
1141.61345,0.95731
1140.90083,0.95888
1140.18822,0.95707
1139.47560,0.95196
1138.76298,0.94453
1138.05036,0.93515
1137.33775,0.92425
1136.62513,0.91389
1135.91251,0.90702
1135.19989,0.90483
1134.48728,0.90574
1133.77466,0.90732
1133.06204,0.90808
1132.34942,0.90711
1131.63681,0.90343
1130.92419,0.89684
1130.21157,0.88844
1129.49895,0.87943
1128.78633,0.87077
1128.07372,0.86420
1127.36110,0.86191
1126.64848,0.86440
1125.93586,0.87026
1125.22325,0.87780
1124.51063,0.88535
1123.79801,0.89031
1123.08539,0.89025
1122.37278,0.88516
1121.66016,0.87741
1120.94754,0.86980
1120.23492,0.86415
1119.52231,0.86087
1118.80969,0.85919
1118.09707,0.85805
1117.38445,0.85699
1116.67184,0.85598
1115.95922,0.85437
1115.24660,0.85081
1114.53398,0.84509
1113.82136,0.83941
1113.10875,0.83657
1112.39613,0.83767
1111.68351,0.84202
1110.97089,0.84819
1110.25828,0.85379
1109.54566,0.85582
1108.83304,0.85263
1108.12042,0.84549
1107.40781,0.83739
1106.69519,0.83061
1105.98257,0.82565
1105.26995,0.82213
1104.55734,0.82028
1103.84472,0.82075
1103.13210,0.82286
1102.41948,0.82467
1101.70686,0.82560
1100.99425,0.82731
1100.28163,0.83065
1099.56901,0.83335
1098.85639,0.83265
1098.14378,0.82891
1097.43116,0.82486
1096.71854,0.82237
1096.00592,0.82160
1095.29331,0.82206
1094.58069,0.82294
1093.86807,0.82327
1093.15545,0.82337
1092.44284,0.82522
1091.73022,0.82964
1091.01760,0.83400
1090.30498,0.83485
1089.59237,0.83295
1088.87975,0.83323
1088.16713,0.83887
1087.45451,0.84725
1086.74189,0.85273
1086.02928,0.85199
1085.31666,0.84566
1084.60404,0.83646
1083.89142,0.82786
1083.17881,0.82329
1082.46619,0.82393
1081.75357,0.82720
1081.04095,0.82903
1080.32834,0.82800
1079.61572,0.82616
1078.90310,0.82603
1078.19048,0.82779
1077.47787,0.82916
1076.76525,0.82693
1076.05263,0.81979
1075.34001,0.81047
1074.62739,0.80428
1073.91478,0.80484
1073.20216,0.81121
1072.48954,0.81909
1071.77692,0.82413
1071.06431,0.82407
1070.35169,0.81896
1069.63907,0.81145
1068.92645,0.80711
1068.21384,0.81176
1067.50122,0.82594
1066.78860,0.84213
1066.07598,0.84985
1065.36337,0.84557
1064.65075,0.83585
1063.93813,0.82970
1063.22551,0.83017
1062.51289,0.83420
1061.80028,0.83760
1061.08766,0.83820
1060.37504,0.83633
1059.66242,0.83475
1058.94981,0.83699
1058.23719,0.84344
1057.52457,0.84981
1056.81195,0.85094
1056.09934,0.84599
1055.38672,0.83921
1054.67410,0.83563
1053.96148,0.83679
1053.24887,0.84078
1052.53625,0.84572
1051.82363,0.85173
1051.11101,0.85859
1050.39840,0.86283
1049.68578,0.85975
1048.97316,0.84893
1048.26054,0.83596
1047.54792,0.82814
1046.83531,0.82885
1046.12269,0.83638
1045.41007,0.84694
1044.69745,0.85750
1043.98484,0.86582
1043.27222,0.87016
1042.55960,0.87083
1041.84698,0.87014
1041.13437,0.86921
1040.42175,0.86702
1039.70913,0.86399
1038.99651,0.86309
1038.28390,0.86571
1037.57128,0.86960
1036.85866,0.87215
1036.14604,0.87363
1035.43342,0.87638
1034.72081,0.88245
1034.00819,0.89194
1033.29557,0.90202
1032.58295,0.90839
1031.87034,0.90965
1031.15772,0.90919
1030.44510,0.91021
1029.73248,0.91109
1029.01987,0.90814
1028.30725,0.90085
1027.59463,0.89176
1026.88201,0.88362
1026.16940,0.87879
1025.45678,0.87940
1024.74416,0.88548
1024.03154,0.89393
1023.31892,0.90078
1022.60631,0.90483
1021.89369,0.90871
1021.18107,0.91596
1020.46845,0.92679
1019.75584,0.93695
1019.04322,0.94094
1018.33060,0.93746
1017.61798,0.93200
1016.90537,0.93245
1016.19275,0.94058
1015.48013,0.94868
1014.76751,0.94699
1014.05490,0.93486
1013.34228,0.92322
1012.62966,0.92538
1011.91704,0.94623
1011.20443,0.97729
1010.49181,0.99989
1009.77919,0.99809
1009.06657,0.97321
1008.35395,0.94275
1007.64134,0.92515
1006.92872,0.92822
1006.21610,0.94850
1005.50348,0.97569
1004.79087,0.99753
1004.07825,1.00514
1003.36563,0.99852
1002.65301,0.98662
1001.94040,0.98023
1001.22778,0.98430
1000.51516,0.99670
999.80254,1.01190
999.08993,1.02484
998.37731,1.03303
997.66469,1.03584
996.95207,1.03233
996.23945,1.02237
995.52684,1.00919
994.81422,0.99823
994.10160,0.99397
993.38898,0.99857
992.67637,1.01036
991.96375,1.02257
991.25113,1.02781
990.53851,1.02678
989.82590,1.02907
989.11328,1.04275
988.40066,1.06498
987.68804,1.08314
986.97543,1.08494
986.26281,1.06965
985.55019,1.04937
984.83757,1.03805
984.12495,1.03884
983.41234,1.04280
982.69972,1.04237
981.98710,1.04392
981.27448,1.06203
980.56187,1.10246
979.84925,1.15110
979.13663,1.18131
978.42401,1.17648
977.71140,1.14395
976.99878,1.10582
976.28616,1.08103
975.57354,1.07417
974.86093,1.07930
974.14831,1.09129
973.43569,1.10772
972.72307,1.11982
972.01046,1.11459
971.29784,1.09488
970.58522,1.08442
969.87260,1.10407
969.15998,1.14933
968.44737,1.19078
967.73475,1.19850
967.02213,1.16940
966.30951,1.12405
965.59690,1.08412
964.88428,1.06260
964.17166,1.06139
963.45904,1.07110
962.74643,1.08408
962.03381,1.11142
961.32119,1.17780
960.60857,1.28493
959.89596,1.37956
959.18334,1.39024
958.47072,1.31065
957.75810,1.19956
957.04548,1.12959
956.33287,1.14610
955.62025,1.24058
954.90763,1.34666
954.19501,1.38847
953.48240,1.34625
952.76978,1.25511
952.05716,1.16817
951.34454,1.12119
950.63193,1.12414
949.91931,1.16100
949.20669,1.19422
948.49407,1.19054
947.78146,1.15341
947.06884,1.11022
946.35622,1.08226
945.64360,1.07637
944.93098,1.07756
944.21837,1.06899
943.50575,1.06699
942.79313,1.10255
942.08051,1.17701
941.36790,1.23988
940.65528,1.22384
939.94266,1.12923
939.23004,1.03646
938.51743,1.01190
937.80481,1.05342
937.09219,1.10547
936.37957,1.12501
935.66696,1.12528
934.95434,1.11455
934.24172,1.11270
933.52910,1.12646
932.81649,1.12924
932.10387,1.09480
931.39125,1.03896
930.67863,0.98922
929.96601,0.95682
929.25340,0.94359
928.54078,0.94142
927.82816,0.92690
927.11554,0.90308
926.40293,0.91302
925.69031,0.96116
924.97769,1.00745
924.26507,1.01790
923.55246,1.03882
922.83984,1.10519
922.12722,1.14588
921.41460,1.08054
920.70199,0.94601
919.98937,0.83204
919.27675,0.78930
918.56413,0.82030
917.85151,0.90462
917.13890,1.01672
916.42628,1.11241
915.71366,1.12767
915.00104,1.08000
914.28843,1.04077
913.57581,1.01642
912.86319,1.00893
912.15057,1.04247
911.43796,1.11639
910.72534,1.20238
910.01272,1.25215
909.30010,1.16436
908.58749,0.96183
907.87487,0.83886
907.16225,0.88362
906.44963,1.01134
905.73702,1.03008
905.02440,0.87563
904.31178,0.71479
903.59916,0.62765
902.88654,0.62014
902.17393,0.66885
901.46131,0.72383
900.74869,0.74376
900.03607,0.71012
899.32346,0.64915
