3999.21017,0.04172
3998.49755,0.04065
3997.78494,0.03976
3997.07232,0.03957
3996.35970,0.03993
3995.64708,0.04026
3994.93447,0.04021
3994.22185,0.03979
3993.50923,0.03931
3992.79661,0.03919
3992.08400,0.03949
3991.37138,0.03969
3990.65876,0.03941
3989.94614,0.03913
3989.23352,0.03957
3988.52091,0.04074
3987.80829,0.04187
3987.09567,0.04225
3986.38305,0.04178
3985.67044,0.04087
3984.95782,0.04007
3984.24520,0.03971
3983.53258,0.03984
3982.81997,0.04011
3982.10735,0.04012
3981.39473,0.03997
3980.68211,0.04002
3979.96950,0.04023
3979.25688,0.04030
3978.54426,0.04050
3977.83164,0.04118
3977.11902,0.04217
3976.40641,0.04313
3975.69379,0.04414
3974.98117,0.04514
3974.26855,0.04565
3973.55594,0.04550
3972.84332,0.04512
3972.13070,0.04512
3971.41808,0.04571
3970.70547,0.04657
3969.99285,0.04708
3969.28023,0.04713
3968.56761,0.04730
3967.85500,0.04772
3967.14238,0.04789
3966.42976,0.04778
3965.71714,0.04822
3965.00453,0.04960
3964.29191,0.05119
3963.57929,0.05203
3962.86667,0.05181
3962.15405,0.05091
3961.44144,0.04995
3960.72882,0.04912
3960.01620,0.04847
3959.30358,0.04858
3958.59097,0.04998
3957.87835,0.05197
3957.16573,0.05330
3956.45311,0.05371
3955.74050,0.05399
3955.02788,0.05460
3954.31526,0.05517
3953.60264,0.05535
3952.89003,0.05534
3952.17741,0.05570
3951.46479,0.05660
3950.75217,0.05750
3950.03955,0.05763
3949.32694,0.05681
3948.61432,0.05558
3947.90170,0.05478
3947.18908,0.05486
3946.47647,0.05556
3945.76385,0.05631
3945.05123,0.05701
3944.33861,0.05795
3943.62600,0.05912
3942.91338,0.06002
3942.20076,0.06047
3941.48814,0.06099
3940.77553,0.06211
3940.06291,0.06353
3939.35029,0.06470
3938.63767,0.06555
3937.92506,0.06628
3937.21244,0.06687
3936.49982,0.06729
3935.78720,0.06789
3935.07458,0.06883
3934.36197,0.06978
3933.64935,0.07033
3932.93673,0.07047
3932.22411,0.07060
3931.51150,0.07101
3930.79888,0.07183
3930.08626,0.07321
3929.37364,0.07526
3928.66103,0.07745
3927.94841,0.07891
3927.23579,0.07945
3926.52317,0.07980
3925.81056,0.08086
3925.09794,0.08270
3924.38532,0.08437
3923.67270,0.08526
3922.96008,0.08579
3922.24747,0.08669
3921.53485,0.08810
3920.82223,0.08982
3920.10961,0.09160
3919.39700,0.09289
3918.68438,0.09336
3917.97176,0.09357
3917.25914,0.09480
3916.54653,0.09744
3915.83391,0.10045
3915.12129,0.10280
3914.40867,0.10427
3913.69606,0.10544
3912.98344,0.10729
3912.27082,0.11029
3911.55820,0.11383
3910.84558,0.11661
3910.13297,0.11792
3909.42035,0.11832
3908.70773,0.11897
3907.99511,0.12033
3907.28250,0.12220
3906.56988,0.12435
3905.85726,0.12640
3905.14464,0.12773
3904.43203,0.12842
3903.71941,0.12933
3903.00679,0.13072
3902.29417,0.13205
3901.58156,0.13312
3900.86894,0.13459
3900.15632,0.13737
3899.44370,0.14136
3898.73109,0.14463
3898.01847,0.14602
3897.30585,0.14667
3896.59323,0.14809
3895.88061,0.15059
3895.16800,0.15310
3894.45538,0.15457
3893.74276,0.15510
3893.03014,0.15531
3892.31753,0.15543
3891.60491,0.15581
3890.89229,0.15707
3890.17967,0.15926
3889.46706,0.16168
3888.75444,0.16381
3888.04182,0.16553
3887.32920,0.16710
3886.61659,0.16898
3885.90397,0.17101
3885.19135,0.17197
3884.47873,0.17187
3883.76611,0.17205
3883.05350,0.17354
3882.34088,0.17612
3881.62826,0.17862
3880.91564,0.17987
3880.20303,0.17993
3879.49041,0.18005
3878.77779,0.18103
3878.06517,0.18230
3877.35256,0.18326
3876.63994,0.18412
3875.92732,0.18571
3875.21470,0.18849
3874.50209,0.19156
3873.78947,0.19330
3873.07685,0.19375
3872.36423,0.19415
3871.65161,0.19525
3870.93900,0.19714
3870.22638,0.19892
3869.51376,0.19917
3868.80114,0.19834
3868.08853,0.19760
3867.37591,0.19710
3866.66329,0.19647
3865.95067,0.19653
3865.23806,0.19859
3864.52544,0.20114
3863.81282,0.20153
3863.10020,0.20020
3862.38759,0.19978
3861.67497,0.20180
3860.96235,0.20457
3860.24973,0.20609
3859.53712,0.20650
3858.82450,0.20698
3858.11188,0.20806
3857.39926,0.20938
3856.68664,0.21068
3855.97403,0.21236
3855.26141,0.21454
3854.54879,0.21591
3853.83617,0.21501
3853.12356,0.21331
3852.41094,0.21226
3851.69832,0.21192
3850.98570,0.21230
3850.27309,0.21286
3849.56047,0.21315
3848.84785,0.21308
3848.13523,0.21270
3847.42262,0.21168
3846.71000,0.20995
3845.99738,0.20831
3845.28476,0.20745
3844.57214,0.20713
3843.85953,0.20696
3843.14691,0.20739
3842.43429,0.20887
3841.72167,0.21103
3841.00906,0.21300
3840.29644,0.21426
3839.58382,0.21503
3838.87120,0.21527
3838.15859,0.21408
3837.44597,0.21171
3836.73335,0.21004
3836.02073,0.21012
3835.30812,0.21150
3834.59550,0.21251
3833.88288,0.21240
3833.17026,0.21184
3832.45764,0.21156
3831.74503,0.21177
3831.03241,0.21240
3830.31979,0.21330
3829.60717,0.21410
3828.89456,0.21405
3828.18194,0.21259
3827.46932,0.21039
3826.75670,0.20907
3826.04409,0.20888
3825.33147,0.20848
3824.61885,0.20724
3823.90623,0.20600
3823.19362,0.20577
3822.48100,0.20656
3821.76838,0.20736
3821.05576,0.20684
3820.34315,0.20523
3819.63053,0.20366
3818.91791,0.20264
3818.20529,0.20218
3817.49267,0.20197
3816.78006,0.20119
3816.06744,0.19988
3815.35482,0.19933
3814.64220,0.19970
3813.92959,0.19994
3813.21697,0.19933
3812.50435,0.19808
3811.79173,0.19677
3811.07912,0.19574
3810.36650,0.19499
3809.65388,0.19421
3808.94126,0.19295
3808.22865,0.19127
3807.51603,0.18973
3806.80341,0.18867
3806.09079,0.18795
3805.37817,0.18823
3804.66556,0.18997
3803.95294,0.19252
3803.24032,0.19408
3802.52770,0.19279
3801.81509,0.18891
3801.10247,0.18586
3800.38985,0.18469
3799.67723,0.18415
3798.96462,0.18351
3798.25200,0.18331
3797.53938,0.18423
3796.82676,0.18569
3796.11415,0.18601
3795.40153,0.18462
3794.68891,0.18246
3793.97629,0.18054
3793.26367,0.17902
3792.55106,0.17789
3791.83844,0.17742
3791.12582,0.17794
3790.41320,0.17918
3789.70059,0.18030
3788.98797,0.18064
3788.27535,0.18015
3787.56273,0.17908
3786.85012,0.17746
3786.13750,0.17516
3785.42488,0.17238
3784.71226,0.16966
3783.99965,0.16731
3783.28703,0.16550
3782.57441,0.16450
3781.86179,0.16468
3781.14918,0.16618
3780.43656,0.16853
3779.72394,0.17009
3779.01132,0.16926
3778.29870,0.16652
3777.58609,0.16357
3776.87347,0.16136
3776.16085,0.15994
3775.44823,0.15869
3774.73562,0.15728
3774.02300,0.15637
3773.31038,0.15670
3772.59776,0.15776
3771.88515,0.15821
3771.17253,0.15772
3770.45991,0.15727
3769.74729,0.15742
3769.03468,0.15734
3768.32206,0.15658
3767.60944,0.15539
3766.89682,0.15417
3766.18420,0.15339
3765.47159,0.15336
3764.75897,0.15346
3764.04635,0.15293
3763.33373,0.15173
3762.62112,0.15045
3761.90850,0.14968
3761.19588,0.14946
3760.48326,0.14910
3759.77065,0.14799
3759.05803,0.14647
3758.34541,0.14544
3757.63279,0.14518
3756.92018,0.14511
3756.20756,0.14438
3755.49494,0.14306
3754.78232,0.14213
3754.06971,0.14171
3753.35709,0.14066
3752.64447,0.13849
3751.93185,0.13773
3751.21923,0.13949
3750.50662,0.14167
3749.79400,0.14210
3749.08138,0.14094
3748.36876,0.13984
3747.65615,0.13901
3746.94353,0.13797
3746.23091,0.13642
3745.51829,0.13446
3744.80568,0.13371
3744.09306,0.13477
3743.38044,0.13547
3742.66782,0.13508
3741.95521,0.13374
3741.24259,0.13226
3740.52997,0.13189
3739.81735,0.13295
3739.10473,0.13451
3738.39212,0.13516
3737.67950,0.13413
3736.96688,0.13188
3736.25426,0.12955
3735.54165,0.12808
3734.82903,0.12747
3734.11641,0.12698
3733.40379,0.12619
3732.69118,0.12563
3731.97856,0.12629
3731.26594,0.12796
3730.55332,0.12945
3729.84071,0.13001
3729.12809,0.12961
3728.41547,0.12883
3727.70285,0.12823
3726.99023,0.12791
3726.27762,0.12753
3725.56500,0.12692
3724.85238,0.12617
3724.13976,0.12538
3723.42715,0.12465
3722.71453,0.12393
3722.00191,0.12291
3721.28929,0.12136
3720.57668,0.11969
3719.86406,0.11859
3719.15144,0.11860
3718.43882,0.11949
3717.72621,0.12041
3717.01359,0.12078
3716.30097,0.12069
3715.58835,0.12068
3714.87574,0.12113
3714.16312,0.12186
3713.45050,0.12235
3712.73788,0.12207
3712.02526,0.12082
3711.31265,0.11911
3710.60003,0.11780
3709.88741,0.11764
3709.17479,0.11853
3708.46218,0.11927
3707.74956,0.11919
3707.03694,0.11875
3706.32432,0.11865
3705.61171,0.11898
3704.89909,0.11914
3704.18647,0.11868
3703.47385,0.11786
3702.76124,0.11731
3702.04862,0.11731
3701.33600,0.11739
3700.62338,0.11732
3699.91076,0.11760
3699.19815,0.11858
3698.48553,0.11966
3697.77291,0.11943
3697.06029,0.11729
3696.34768,0.11461
3695.63506,0.11349
3694.92244,0.11452
3694.20982,0.11624
3693.49721,0.11696
3692.78459,0.11635
3692.07197,0.11539
3691.35935,0.11510
3690.64674,0.11514
3689.93412,0.11474
3689.22150,0.11453
3688.50888,0.11568
3687.79626,0.11723
3687.08365,0.11775
3686.37103,0.11728
3685.65841,0.11641
3684.94579,0.11575
3684.23318,0.11592
3683.52056,0.11716
3682.80794,0.11886
3682.09532,0.11983
3681.38271,0.11923
3680.67009,0.11752
3679.95747,0.11648
3679.24485,0.11733
3678.53224,0.11917
3677.81962,0.12045
3677.10700,0.12059
3676.39438,0.11997
3675.68177,0.11959
3674.96915,0.12004
3674.25653,0.12015
3673.54391,0.11935
3672.83129,0.11808
3672.11868,0.11742
3671.40606,0.11846
3670.69344,0.12077
3669.98082,0.12221
3669.26821,0.12244
3668.55559,0.12264
3667.84297,0.12347
3667.13035,0.12463
3666.41774,0.12556
3665.70512,0.12602
3664.99250,0.12632
3664.27988,0.12698
3663.56727,0.12818
3662.85465,0.12946
3662.14203,0.13017
3661.42941,0.13036
3660.71679,0.13069
3660.00418,0.13148
3659.29156,0.13226
3658.57894,0.13241
3657.86632,0.13194
3657.15371,0.13183
3656.44109,0.13344
3655.72847,0.13633
3655.01585,0.13863
3654.30324,0.13957
3653.59062,0.13939
3652.87800,0.13870
3652.16538,0.13818
3651.45277,0.13874
3650.74015,0.14101
3650.02753,0.14417
3649.31491,0.14668
3648.60229,0.14829
3647.88968,0.14948
3647.17706,0.15011
3646.46444,0.14971
3645.75182,0.14876
3645.03921,0.14833
3644.32659,0.14929
3643.61397,0.15167
3642.90135,0.15453
3642.18874,0.15684
3641.47612,0.15856
3640.76350,0.16022
3640.05088,0.16183
3639.33827,0.16300
3638.62565,0.16376
3637.91303,0.16450
3637.20041,0.16532
3636.48780,0.16603
3635.77518,0.16670
3635.06256,0.16774
3634.34994,0.16962
3633.63732,0.17192
3632.92471,0.17343
3632.21209,0.17357
3631.49947,0.17280
3630.78685,0.17199
3630.07424,0.17249
3629.36162,0.17547
3628.64900,0.17930
3627.93638,0.18154
3627.22377,0.18230
3626.51115,0.18238
3625.79853,0.18234
3625.08591,0.18285
3624.37330,0.18432
3623.66068,0.18658
3622.94806,0.18884
3622.23544,0.19022
3621.52282,0.19064
3620.81021,0.19128
3620.09759,0.19378
3619.38497,0.19799
3618.67235,0.20199
3617.95974,0.20424
3617.24712,0.20471
3616.53450,0.20433
3615.82188,0.20413
3615.10927,0.20464
3614.39665,0.20559
3613.68403,0.20656
3612.97141,0.20799
3612.25880,0.21011
3611.54618,0.21231
3610.83356,0.21427
3610.12094,0.21633
3609.40832,0.21857
3608.69571,0.22072
3607.98309,0.22315
3607.27047,0.22623
3606.55785,0.22909
3605.84524,0.23065
3605.13262,0.23098
3604.42000,0.23088
3603.70738,0.23106
3602.99477,0.23176
3602.28215,0.23261
3601.56953,0.23337
3600.85691,0.23438
3600.14430,0.23585
3599.43168,0.23740
3598.71906,0.23900
3598.00644,0.24106
3597.29383,0.24326
3596.58121,0.24476
3595.86859,0.24573
3595.15597,0.24740
3594.44335,0.24996
3593.73074,0.25245
3593.01812,0.25448
3592.30550,0.25658
3591.59288,0.25866
3590.88027,0.25995
3590.16765,0.26027
3589.45503,0.26054
3588.74241,0.26144
3588.02980,0.26267
3587.31718,0.26456
3586.60456,0.26814
3585.89194,0.27284
3585.17933,0.27700
3584.46671,0.27975
3583.75409,0.28149
3583.04147,0.28283
3582.32885,0.28372
3581.61624,0.28379
3580.90362,0.28339
3580.19100,0.28359
3579.47838,0.28523
3578.76577,0.28839
3578.05315,0.29257
3577.34053,0.29673
3576.62791,0.29965
3575.91530,0.30104
3575.20268,0.30174
3574.49006,0.30245
3573.77744,0.30295
3573.06483,0.30306
3572.35221,0.30362
3571.63959,0.30559
3570.92697,0.30867
3570.21435,0.31155
3569.50174,0.31344
3568.78912,0.31487
3568.07650,0.31735
3567.36388,0.32205
3566.65127,0.32777
3565.93865,0.33185
3565.22603,0.33330
3564.51341,0.33353
3563.80080,0.33411
3563.08818,0.33542
3562.37556,0.33706
3561.66294,0.33860
3560.95033,0.33997
3560.23771,0.34139
3559.52509,0.34315
3558.81247,0.34523
3558.09986,0.34729
3557.38724,0.34902
3556.67462,0.35058
3555.96200,0.35254
3555.24938,0.35519
3554.53677,0.35815
3553.82415,0.36094
3553.11153,0.36357
3552.39891,0.36638
3551.68630,0.36951
3550.97368,0.37270
3550.26106,0.37560
3549.54844,0.37814
3548.83583,0.38035
3548.12321,0.38196
3547.41059,0.38284
3546.69797,0.38389
3545.98536,0.38665
3545.27274,0.39174
3544.56012,0.39804
3543.84750,0.40358
3543.13488,0.40698
3542.42227,0.40833
3541.70965,0.40886
3540.99703,0.40966
3540.28441,0.41083
3539.57180,0.41211
3538.85918,0.41382
3538.14656,0.41646
3537.43394,0.41962
3536.72133,0.42231
3536.00871,0.42424
3535.29609,0.42621
3534.58347,0.42903
3533.87086,0.43258
3533.15824,0.43628
3532.44562,0.44010
3531.73300,0.44428
3531.02039,0.44801
3530.30777,0.44995
3529.59515,0.45041
3528.88253,0.45166
3528.16991,0.45534
3527.45730,0.46096
3526.74468,0.46696
3526.03206,0.47222
3525.31944,0.47621
3524.60683,0.47877
3523.89421,0.48006
3523.18159,0.48080
3522.46897,0.48194
3521.75636,0.48371
3521.04374,0.48557
3520.33112,0.48736
3519.61850,0.48966
3518.90589,0.49276
3518.19327,0.49597
3517.48065,0.49873
3516.76803,0.50155
3516.05541,0.50501
3515.34280,0.50838
3514.63018,0.51049
3513.91756,0.51188
3513.20494,0.51434
3512.49233,0.51853
3511.77971,0.52335
3511.06709,0.52769
3510.35447,0.53091
3509.64186,0.53268
3508.92924,0.53382
3508.21662,0.53614
3507.50400,0.53998
3506.79139,0.54353
3506.07877,0.54529
3505.36615,0.54604
3504.65353,0.54770
3503.94091,0.55111
3503.22830,0.55579
3502.51568,0.56103
3501.80306,0.56624
3501.09044,0.57070
3500.37783,0.57364
3499.66521,0.57487
3498.95259,0.57545
3498.23997,0.57720
3497.52736,0.58104
3496.81474,0.58572
3496.10212,0.58890
3495.38950,0.58993
3494.67689,0.59102
3493.96427,0.59459
3493.25165,0.59999
3492.53903,0.60414
3491.82642,0.60601
3491.11380,0.60832
3490.40118,0.61308
3489.68856,0.61817
3488.97594,0.62051
3488.26333,0.62085
3487.55071,0.62295
3486.83809,0.62866
3486.12547,0.63576
3485.41286,0.64075
3484.70024,0.64301
3483.98762,0.64482
3483.27500,0.64734
3482.56239,0.64933
3481.84977,0.65003
3481.13715,0.65094
3480.42453,0.65320
3479.71192,0.65606
3478.99930,0.65857
3478.28668,0.66095
3477.57406,0.66382
3476.86144,0.66738
3476.14883,0.67137
3475.43621,0.67513
3474.72359,0.67818
3474.01097,0.68097
3473.29836,0.68424
3472.58574,0.68779
3471.87312,0.69052
3471.16050,0.69165
3470.44789,0.69164
3469.73527,0.69188
3469.02265,0.69342
3468.31003,0.69601
3467.59742,0.69871
3466.88480,0.70107
3466.17218,0.70320
3465.45956,0.70507
3464.74694,0.70659
3464.03433,0.70826
3463.32171,0.71175
3462.60909,0.71856
3461.89647,0.72725
3461.18386,0.73361
3460.47124,0.73535
3459.75862,0.73484
3459.04600,0.73612
3458.33339,0.74094
3457.62077,0.74766
3456.90815,0.75232
3456.19553,0.75183
3455.48292,0.74725
3454.77030,0.74257
3454.05768,0.74069
3453.34506,0.74233
3452.63245,0.74735
3451.91983,0.75443
3451.20721,0.76047
3450.49459,0.76283
3449.78197,0.76188
3449.06936,0.76023
3448.35674,0.76052
3447.64412,0.76388
3446.93150,0.76949
3446.21889,0.77517
3445.50627,0.77904
3444.79365,0.78041
3444.08103,0.78060
3443.36842,0.78261
3442.65580,0.78827
3441.94318,0.79525
3441.23056,0.79918
3440.51795,0.79835
3439.80533,0.79478
3439.09271,0.79155
3438.38009,0.79076
3437.66747,0.79241
3436.95486,0.79429
3436.24224,0.79466
3435.52962,0.79517
3434.81700,0.79854
3434.10439,0.80381
3433.39177,0.80687
3432.67915,0.80550
3431.96653,0.80189
3431.25392,0.80026
3430.54130,0.80317
3429.82868,0.80927
3429.11606,0.81474
3428.40345,0.81743
3427.69083,0.81816
3426.97821,0.81809
3426.26559,0.81753
3425.55297,0.81712
3424.84036,0.81789
3424.12774,0.82059
3423.41512,0.82510
3422.70250,0.82972
3421.98989,0.83144
3421.27727,0.82882
3420.56465,0.82430
3419.85203,0.82165
3419.13942,0.82200
3418.42680,0.82343
3417.71418,0.82390
3417.00156,0.82349
3416.28895,0.82376
3415.57633,0.82598
3414.86371,0.82982
3414.15109,0.83379
3413.43848,0.83663
3412.72586,0.83761
3412.01324,0.83709
3411.30062,0.83739
3410.58800,0.84093
3409.87539,0.84680
3409.16277,0.85075
3408.45015,0.84970
3407.73753,0.84483
3407.02492,0.83892
3406.31230,0.83341
3405.59968,0.82912
3404.88706,0.82715
3404.17445,0.82785
3403.46183,0.82999
3402.74921,0.83180
3402.03659,0.83298
3401.32398,0.83429
3400.61136,0.83509
3399.89874,0.83351
3399.18612,0.82996
3398.47350,0.82781
3397.76089,0.82916
3397.04827,0.83210
3396.33565,0.83355
3395.62303,0.83293
3394.91042,0.83170
3394.19780,0.83173
3393.48518,0.83366
3392.77256,0.83595
3392.05995,0.83697
3391.34733,0.83736
3390.63471,0.83796
3389.92209,0.83770
3389.20948,0.83560
3388.49686,0.83305
3387.78424,0.83202
3387.07162,0.83262
3386.35900,0.83337
3385.64639,0.83273
3384.93377,0.83058
3384.22115,0.82771
3383.50853,0.82428
3382.79592,0.82016
3382.08330,0.81571
3381.37068,0.81137
3380.65806,0.80768
3379.94545,0.80582
3379.23283,0.80670
3378.52021,0.80919
3377.80759,0.81107
3377.09498,0.81181
3376.38236,0.81248
3375.66974,0.81297
3374.95712,0.81134
3374.24451,0.80633
3373.53189,0.79914
3372.81927,0.79214
3372.10665,0.78702
3371.39403,0.78452
3370.68142,0.78432
3369.96880,0.78541
3369.25618,0.78713
3368.54356,0.78893
3367.83095,0.78919
3367.11833,0.78692
3366.40571,0.78428
3365.69309,0.78449
3364.98048,0.78733
3364.26786,0.78898
3363.55524,0.78650
3362.84262,0.78083
3362.13001,0.77517
3361.41739,0.77150
3360.70477,0.76951
3359.99215,0.76815
3359.27953,0.76727
3358.56692,0.76741
3357.85430,0.76856
3357.14168,0.76932
3356.42906,0.76732
3355.71645,0.76130
3355.00383,0.75327
3354.29121,0.74699
3353.57859,0.74410
3352.86598,0.74323
3352.15336,0.74269
3351.44074,0.74197
3350.72812,0.74054
3350.01551,0.73761
3349.30289,0.73321
3348.59027,0.72822
3347.87765,0.72356
3347.16504,0.71967
3346.45242,0.71619
3345.73980,0.71224
3345.02718,0.70756
3344.31456,0.70282
3343.60195,0.69905
3342.88933,0.69736
3342.17671,0.69845
3341.46409,0.70115
3340.75148,0.70237
3340.03886,0.70007
3339.32624,0.69554
3338.61362,0.69189
3337.90101,0.69036
3337.18839,0.68931
3336.47577,0.68661
3335.76315,0.68211
3335.05054,0.67738
3334.33792,0.67351
3333.62530,0.67016
3332.91268,0.66657
3332.20006,0.66293
3331.48745,0.66024
3330.77483,0.65880
3330.06221,0.65774
3329.34959,0.65602
3328.63698,0.65329
3327.92436,0.64994
3327.21174,0.64655
3326.49912,0.64285
3325.78651,0.63768
3325.07389,0.63117
3324.36127,0.62585
3323.64865,0.62345
3322.93604,0.62230
3322.22342,0.61986
3321.51080,0.61614
3320.79818,0.61271
3320.08556,0.61004
3319.37295,0.60751
3318.66033,0.60519
3317.94771,0.60365
3317.23509,0.60254
3316.52248,0.60076
3315.80986,0.59806
3315.09724,0.59530
3314.38462,0.59298
3313.67201,0.59069
3312.95939,0.58801
3312.24677,0.58494
3311.53415,0.58166
3310.82154,0.57853
3310.10892,0.57576
3309.39630,0.57265
3308.68368,0.56842
3307.97107,0.56381
3307.25845,0.56028
3306.54583,0.55774
3305.83321,0.55466
3305.12059,0.55056
3304.40798,0.54680
3303.69536,0.54437
3302.98274,0.54244
3302.27012,0.53977
3301.55751,0.53635
3300.84489,0.53281
3300.13227,0.52927
3299.41965,0.52532
3298.70704,0.52097
3297.99442,0.51718
3297.28180,0.51478
3296.56918,0.51329
3295.85657,0.51148
3295.14395,0.50881
3294.43133,0.50570
3293.71871,0.50293
3293.00609,0.50090
3292.29348,0.49920
3291.58086,0.49704
3290.86824,0.49446
3290.15562,0.49206
3289.44301,0.48973
3288.73039,0.48688
3288.01777,0.48335
3287.30515,0.47930
3286.59254,0.47487
3285.87992,0.47066
3285.16730,0.46759
3284.45468,0.46572
3283.74207,0.46414
3283.02945,0.46213
3282.31683,0.45992
3281.60421,0.45821
3280.89159,0.45733
3280.17898,0.45682
3279.46636,0.45570
3278.75374,0.45328
3278.04112,0.44974
3277.32851,0.44572
3276.61589,0.44167
3275.90327,0.43781
3275.19065,0.43450
3274.47804,0.43194
3273.76542,0.42973
3273.05280,0.42722
3272.34018,0.42446
3271.62757,0.42203
3270.91495,0.42011
3270.20233,0.41813
3269.48971,0.41535
3268.77710,0.41164
3268.06448,0.40760
3267.35186,0.40418
3266.63924,0.40197
3265.92662,0.40066
3265.21401,0.39900
3264.50139,0.39614
3263.78877,0.39266
3263.07615,0.38983
3262.36354,0.38789
3261.65092,0.38599
3260.93830,0.38356
3260.22568,0.38084
3259.51307,0.37816
3258.80045,0.37544
3258.08783,0.37237
3257.37521,0.36910
3256.66260,0.36633
3255.94998,0.36444
3255.23736,0.36280
3254.52474,0.36051
3253.81212,0.35760
3253.09951,0.35491
3252.38689,0.35263
3251.67427,0.35008
3250.96165,0.34715
3250.24904,0.34486
3249.53642,0.34359
3248.82380,0.34225
3248.11118,0.34015
3247.39857,0.33814
3246.68595,0.33679
3245.97333,0.33511
3245.26071,0.33236
3244.54810,0.32976
3243.83548,0.32894
3243.12286,0.32958
3242.41024,0.32967
3241.69762,0.32785
3240.98501,0.32477
3240.27239,0.32197
3239.55977,0.32007
3238.84715,0.31846
3238.13454,0.31655
3237.42192,0.31460
3236.70930,0.31307
3235.99668,0.31180
3235.28407,0.30999
3234.57145,0.30727
3233.85883,0.30431
3233.14621,0.30205
3232.43360,0.30063
3231.72098,0.29950
3231.00836,0.29826
3230.29574,0.29689
3229.58313,0.29531
3228.87051,0.29331
3228.15789,0.29096
3227.44527,0.28866
3226.73265,0.28667
3226.02004,0.28481
3225.30742,0.28284
3224.59480,0.28095
3223.88218,0.27950
3223.16957,0.27850
3222.45695,0.27736
3221.74433,0.27529
3221.03171,0.27239
3220.31910,0.27003
3219.60648,0.26932
3218.89386,0.26981
3218.18124,0.27033
3217.46863,0.27041
3216.75601,0.27006
3216.04339,0.26867
3215.33077,0.26552
3214.61815,0.26106
3213.90554,0.25711
3213.19292,0.25531
3212.48030,0.25553
3211.76768,0.25621
3211.05507,0.25615
3210.34245,0.25541
3209.62983,0.25448
3208.91721,0.25352
3208.20460,0.25272
3207.49198,0.25233
3206.77936,0.25205
3206.06674,0.25114
3205.35413,0.24951
3204.64151,0.24793
3203.92889,0.24692
3203.21627,0.24611
3202.50365,0.24492
3201.79104,0.24324
3201.07842,0.24120
3200.36580,0.23901
3199.65318,0.23712
3198.94057,0.23594
3198.22795,0.23532
3197.51533,0.23461
3196.80271,0.23337
3196.09010,0.23185
3195.37748,0.23052
3194.66486,0.22934
3193.95224,0.22791
3193.23963,0.22604
3192.52701,0.22396
3191.81439,0.22206
3191.10177,0.22096
3190.38916,0.22108
3189.67654,0.22194
3188.96392,0.22216
3188.25130,0.22073
3187.53868,0.21803
3186.82607,0.21554
3186.11345,0.21456
3185.40083,0.21501
3184.68821,0.21556
3183.97560,0.21509
3183.26298,0.21375
3182.55036,0.21243
3181.83774,0.21173
3181.12513,0.21153
3180.41251,0.21125
3179.69989,0.21037
3178.98727,0.20899
3178.27466,0.20762
3177.56204,0.20658
3176.84942,0.20581
3176.13680,0.20525
3175.42418,0.20481
3174.71157,0.20430
3173.99895,0.20359
3173.28633,0.20286
3172.57371,0.20240
3171.86110,0.20232
3171.14848,0.20238
3170.43586,0.20206
3169.72324,0.20098
3169.01063,0.19920
3168.29801,0.19732
3167.58539,0.19590
3166.87277,0.19502
3166.16016,0.19437
3165.44754,0.19383
3164.73492,0.19348
3164.02230,0.19321
3163.30968,0.19279
3162.59707,0.19213
3161.88445,0.19135
3161.17183,0.19063
3160.45921,0.19004
3159.74660,0.18948
3159.03398,0.18864
3158.32136,0.18733
3157.60874,0.18573
3156.89613,0.18429
3156.18351,0.18345
3155.47089,0.18331
3154.75827,0.18360
3154.04566,0.18380
3153.33304,0.18351
3152.62042,0.18269
3151.90780,0.18172
3151.19519,0.18115
3150.48257,0.18116
3149.76995,0.18142
3149.05733,0.18140
3148.34471,0.18090
3147.63210,0.18010
3146.91948,0.17920
3146.20686,0.17834
3145.49424,0.17749
3144.78163,0.17651
3144.06901,0.17538
3143.35639,0.17459
3142.64377,0.17467
3141.93116,0.17553
3141.21854,0.17651
3140.50592,0.17701
3139.79330,0.17686
3139.08069,0.17622
3138.36807,0.17546
3137.65545,0.17470
3136.94283,0.17378
3136.23021,0.17277
3135.51760,0.17204
3134.80498,0.17166
3134.09236,0.17129
3133.37974,0.17070
3132.66713,0.17019
3131.95451,0.17005
3131.24189,0.17004
3130.52927,0.16972
3129.81666,0.16906
3129.10404,0.16846
3128.39142,0.16802
3127.67880,0.16735
3126.96619,0.16632
3126.25357,0.16541
3125.54095,0.16513
3124.82833,0.16532
3124.11572,0.16534
3123.40310,0.16495
3122.69048,0.16441
3121.97786,0.16402
3121.26524,0.16375
3120.55263,0.16346
3119.84001,0.16315
3119.12739,0.16286
3118.41477,0.16251
3117.70216,0.16201
3116.98954,0.16164
3116.27692,0.16169
3115.56430,0.16210
3114.85169,0.16261
3114.13907,0.16307
3113.42645,0.16330
3112.71383,0.16302
3112.00122,0.16220
3111.28860,0.16125
3110.57598,0.16055
3109.86336,0.16022
3109.15074,0.16020
3108.43813,0.16042
3107.72551,0.16071
3107.01289,0.16083
3106.30027,0.16073
3105.58766,0.16047
3104.87504,0.15996
3104.16242,0.15919
3103.44980,0.15840
3102.73719,0.15797
3102.02457,0.15790
3101.31195,0.15782
3100.59933,0.15731
3099.88672,0.15638
3099.17410,0.15554
3098.46148,0.15553
3097.74886,0.15660
3097.03624,0.15818
3096.32363,0.15934
3095.61101,0.15956
3094.89839,0.15894
3094.18577,0.15798
3093.47316,0.15713
3092.76054,0.15654
3092.04792,0.15598
3091.33530,0.15538
3090.62269,0.15492
3089.91007,0.15471
3089.19745,0.15473
3088.48483,0.15500
3087.77222,0.15538
3087.05960,0.15542
3086.34698,0.15490
3085.63436,0.15426
3084.92175,0.15391
3084.20913,0.15369
3083.49651,0.15373
3082.78389,0.15457
3082.07127,0.15607
3081.35866,0.15719
3080.64604,0.15743
3079.93342,0.15730
3079.22080,0.15716
3078.50819,0.15672
3077.79557,0.15574
3077.08295,0.15465
3076.37033,0.15416
3075.65772,0.15453
3074.94510,0.15504
3074.23248,0.15477
3073.51986,0.15375
3072.80725,0.15296
3072.09463,0.15299
3071.38201,0.15343
3070.66939,0.15366
3069.95677,0.15360
3069.24416,0.15364
3068.53154,0.15400
3067.81892,0.15448
3067.10630,0.15478
3066.39369,0.15494
3065.68107,0.15538
3064.96845,0.15636
3064.25583,0.15756
3063.54322,0.15827
3062.83060,0.15809
3062.11798,0.15738
3061.40536,0.15662
3060.69275,0.15571
3059.98013,0.15454
3059.26751,0.15378
3058.55489,0.15420
3057.84227,0.15565
3057.12966,0.15720
3056.41704,0.15812
3055.70442,0.15832
3054.99180,0.15802
3054.27919,0.15743
3053.56657,0.15686
3052.85395,0.15663
3052.14133,0.15676
3051.42872,0.15692
3050.71610,0.15701
3050.00348,0.15729
3049.29086,0.15777
3048.57825,0.15817
3047.86563,0.15850
3047.15301,0.15899
3046.44039,0.15944
3045.72778,0.15942
3045.01516,0.15911
3044.30254,0.15914
3043.58992,0.15975
3042.87730,0.16068
3042.16469,0.16165
3041.45207,0.16242
3040.73945,0.16257
3040.02683,0.16178
3039.31422,0.16030
3038.60160,0.15904
3037.88898,0.15884
3037.17636,0.15961
3036.46375,0.16044
3035.75113,0.16075
3035.03851,0.16095
3034.32589,0.16157
3033.61328,0.16235
3032.90066,0.16269
3032.18804,0.16270
3031.47542,0.16292
3030.76280,0.16338
3030.05019,0.16359
3029.33757,0.16338
3028.62495,0.16317
3027.91233,0.16339
3027.19972,0.16415
3026.48710,0.16530
3025.77448,0.16642
3025.06186,0.16701
3024.34925,0.16697
3023.63663,0.16676
3022.92401,0.16686
3022.21139,0.16723
3021.49878,0.16758
3020.78616,0.16791
3020.07354,0.16849
3019.36092,0.16938
3018.64830,0.17031
3017.93569,0.17094
3017.22307,0.17111
3016.51045,0.17065
3015.79783,0.16966
3015.08522,0.16882
3014.37260,0.16898
3013.65998,0.17027
3012.94736,0.17202
3012.23475,0.17353
3011.52213,0.17444
3010.80951,0.17466
3010.09689,0.17438
3009.38428,0.17428
3008.67166,0.17497
3007.95904,0.17641
3007.24642,0.17797
3006.53381,0.17910
3005.82119,0.17973
3005.10857,0.18009
3004.39595,0.18051
3003.68333,0.18124
3002.97072,0.18220
3002.25810,0.18299
3001.54548,0.18333
3000.83286,0.18340
3000.12025,0.18364
2999.40763,0.18433
2998.69501,0.18528
2997.98239,0.18590
2997.26978,0.18597
2996.55716,0.18600
2995.84454,0.18638
2995.13192,0.18668
2994.41931,0.18644
2993.70669,0.18617
2992.99407,0.18677
2992.28145,0.18834
2991.56883,0.19004
2990.85622,0.19113
2990.14360,0.19168
2989.43098,0.19226
2988.71836,0.19314
2988.00575,0.19409
2987.29313,0.19482
2986.58051,0.19555
2985.86789,0.19661
2985.15528,0.19797
2984.44266,0.19920
2983.73004,0.19999
2983.01742,0.20043
2982.30481,0.20101
2981.59219,0.20213
2980.87957,0.20368
2980.16695,0.20519
2979.45433,0.20634
2978.74172,0.20715
2978.02910,0.20769
2977.31648,0.20800
2976.60386,0.20813
2975.89125,0.20805
2975.17863,0.20770
2974.46601,0.20736
2973.75339,0.20767
2973.04078,0.20906
2972.32816,0.21118
2971.61554,0.21310
2970.90292,0.21406
2970.19031,0.21405
2969.47769,0.21371
2968.76507,0.21379
2968.05245,0.21456
2967.33984,0.21572
2966.62722,0.21674
2965.91460,0.21769
2965.20198,0.21920
2964.48936,0.22129
2963.77675,0.22281
2963.06413,0.22278
2962.35151,0.22174
2961.63889,0.22106
2960.92628,0.22136
2960.21366,0.22207
2959.50104,0.22249
2958.78842,0.22260
2958.07581,0.22297
2957.36319,0.22388
2956.65057,0.22500
2955.93795,0.22589
2955.22534,0.22631
2954.51272,0.22634
2953.80010,0.22646
2953.08748,0.22716
2952.37486,0.22855
2951.66225,0.23050
2950.94963,0.23276
2950.23701,0.23463
2949.52439,0.23515
2948.81178,0.23436
2948.09916,0.23359
2947.38654,0.23409
2946.67392,0.23583
2945.96131,0.23771
2945.24869,0.23855
2944.53607,0.23820
2943.82345,0.23767
2943.11084,0.23798
2942.39822,0.23883
2941.68560,0.23913
2940.97298,0.23866
2940.26037,0.23863
2939.54775,0.24005
2938.83513,0.24213
2938.12251,0.24325
2937.40989,0.24287
2936.69728,0.24184
2935.98466,0.24110
2935.27204,0.24107
2934.55942,0.24174
2933.84681,0.24274
2933.13419,0.24347
2932.42157,0.24352
2931.70895,0.24293
2930.99634,0.24220
2930.28372,0.24194
2929.57110,0.24234
2928.85848,0.24284
2928.14587,0.24275
2927.43325,0.24195
2926.72063,0.24088
2926.00801,0.24023
2925.29539,0.24039
2924.58278,0.24111
2923.87016,0.24189
2923.15754,0.24270
2922.44492,0.24377
2921.73231,0.24475
2921.01969,0.24478
2920.30707,0.24369
2919.59445,0.24233
2918.88184,0.24153
2918.16922,0.24132
2917.45660,0.24127
2916.74398,0.24106
2916.03137,0.24066
2915.31875,0.24024
2914.60613,0.24013
2913.89351,0.24044
2913.18089,0.24092
2912.46828,0.24128
2911.75566,0.24152
2911.04304,0.24169
2910.33042,0.24169
2909.61781,0.24127
2908.90519,0.24018
2908.19257,0.23851
2907.47995,0.23703
2906.76734,0.23632
2906.05472,0.23626
2905.34210,0.23653
2904.62948,0.23692
2903.91687,0.23702
2903.20425,0.23651
2902.49163,0.23600
2901.77901,0.23636
2901.06640,0.23752
2900.35378,0.23862
2899.64116,0.23886
2898.92854,0.23802
2898.21592,0.23658
2897.50331,0.23557
2896.79069,0.23567
2896.07807,0.23660
2895.36545,0.23760
2894.65284,0.23835
2893.94022,0.23893
2893.22760,0.23911
2892.51498,0.23845
2891.80237,0.23720
2891.08975,0.23646
2890.37713,0.23696
2889.66451,0.23816
2888.95190,0.23887
2888.23928,0.23852
2887.52666,0.23757
2886.81404,0.23679
2886.10142,0.23639
2885.38881,0.23595
2884.67619,0.23522
2883.96357,0.23463
2883.25095,0.23474
2882.53834,0.23540
2881.82572,0.23594
2881.11310,0.23603
2880.40048,0.23584
2879.68787,0.23550
2878.97525,0.23499
2878.26263,0.23441
2877.55001,0.23400
2876.83740,0.23395
2876.12478,0.23446
2875.41216,0.23549
2874.69954,0.23631
2873.98692,0.23613
2873.27431,0.23506
2872.56169,0.23384
2871.84907,0.23308
2871.13645,0.23302
2870.42384,0.23350
2869.71122,0.23406
2868.99860,0.23453
2868.28598,0.23519
2867.57337,0.23612
2866.86075,0.23677
2866.14813,0.23665
2865.43551,0.23573
2864.72290,0.23445
2864.01028,0.23356
2863.29766,0.23379
2862.58504,0.23521
2861.87243,0.23694
2861.15981,0.23782
2860.44719,0.23732
2859.73457,0.23604
2859.02195,0.23525
2858.30934,0.23586
2857.59672,0.23760
2856.88410,0.23921
2856.17148,0.23968
2855.45887,0.23931
2854.74625,0.23915
2854.03363,0.23963
2853.32101,0.24050
2852.60840,0.24170
2851.89578,0.24322
2851.18316,0.24451
2850.47054,0.24503
2849.75793,0.24486
2849.04531,0.24437
2848.33269,0.24398
2847.62007,0.24422
2846.90745,0.24542
2846.19484,0.24704
2845.48222,0.24807
2844.76960,0.24822
2844.05698,0.24820
2843.34437,0.24888
2842.63175,0.25018
2841.91913,0.25117
2841.20651,0.25129
2840.49390,0.25105
2839.78128,0.25140
2839.06866,0.25265
2838.35604,0.25414
2837.64343,0.25476
2836.93081,0.25420
2836.21819,0.25352
2835.50557,0.25407
2834.79295,0.25578
2834.08034,0.25743
2833.36772,0.25833
2832.65510,0.25888
2831.94248,0.25947
2831.22987,0.25996
2830.51725,0.26034
2829.80463,0.26095
2829.09201,0.26188
2828.37940,0.26292
2827.66678,0.26410
2826.95416,0.26563
2826.24154,0.26728
2825.52893,0.26859
2824.81631,0.26959
2824.10369,0.27078
2823.39107,0.27218
2822.67846,0.27300
2821.96584,0.27277
2821.25322,0.27216
2820.54060,0.27223
2819.82798,0.27351
2819.11537,0.27575
2818.40275,0.27825
2817.69013,0.28011
2816.97751,0.28095
2816.26490,0.28141
2815.55228,0.28242
2814.83966,0.28412
2814.12704,0.28593
2813.41443,0.28741
2812.70181,0.28873
2811.98919,0.29012
2811.27657,0.29138
2810.56396,0.29216
2809.85134,0.29261
2809.13872,0.29330
2808.42610,0.29443
2807.71348,0.29575
2807.00087,0.29724
2806.28825,0.29918
2805.57563,0.30147
2804.86301,0.30374
2804.15040,0.30587
2803.43778,0.30794
2802.72516,0.30966
2802.01254,0.31083
2801.29993,0.31194
2800.58731,0.31382
2799.87469,0.31655
2799.16207,0.31927
2798.44946,0.32116
2797.73684,0.32247
2797.02422,0.32402
2796.31160,0.32604
2795.59898,0.32813
2794.88637,0.33023
2794.17375,0.33258
2793.46113,0.33507
2792.74851,0.33743
2792.03590,0.33997
2791.32328,0.34312
2790.61066,0.34667
2789.89804,0.35006
2789.18543,0.35299
2788.47281,0.35534
2787.76019,0.35697
2787.04757,0.35826
2786.33496,0.36054
2785.62234,0.36503
2784.90972,0.37131
2784.19710,0.37746
2783.48449,0.38202
2782.77187,0.38502
2782.05925,0.38722
2781.34663,0.38924
2780.63401,0.39150
2779.92140,0.39440
2779.20878,0.39851
2778.49616,0.40421
2777.78354,0.41090
2777.07093,0.41709
2776.35831,0.42215
2775.64569,0.42714
2774.93307,0.43334
2774.22046,0.44065
2773.50784,0.44813
2772.79522,0.45517
2772.08260,0.46167
2771.36999,0.46764
2770.65737,0.47330
2769.94475,0.47928
2769.23213,0.48629
2768.51951,0.49430
2767.80690,0.50246
2767.09428,0.50995
2766.38166,0.51689
2765.66904,0.52430
2764.95643,0.53312
2764.24381,0.54348
2763.53119,0.55488
2762.81857,0.56671
2762.10596,0.57840
2761.39334,0.58965
2760.68072,0.60067
2759.96810,0.61202
2759.25549,0.62383
2758.54287,0.63592
2757.83025,0.64861
2757.11763,0.66277
2756.40501,0.67850
2755.69240,0.69454
2754.97978,0.70981
2754.26716,0.72497
2753.55454,0.74131
2752.84193,0.75883
2752.12931,0.77688
2751.41669,0.79564
2750.70407,0.81533
2749.99146,0.83542
2749.27884,0.85564
2748.56622,0.87603
2747.85360,0.89644
2747.14099,0.91742
2746.42837,0.94015
2745.71575,0.96458
2745.00313,0.98994
2744.29052,1.01760
2743.57790,1.04963
2742.86528,1.08467
2742.15266,1.11892
2741.44004,1.15101
2740.72743,1.18188
2740.01481,1.21152
2739.30219,1.23986
2738.58957,1.26920
2737.87696,1.30338
2737.16434,1.34457
2736.45172,1.39065
2735.73910,1.43716
2735.02649,1.48290
2734.31387,1.53224
2733.60125,1.58870
2732.88863,1.64822
2732.17602,1.70285
2731.46340,1.74681
2730.75078,1.78090
2730.03816,1.81333
2729.32554,1.85926
2728.61293,1.93275
2727.90031,2.01834
2727.18769,2.06976
2726.47507,2.07199
2725.76246,2.08306
2725.04984,2.15509
2724.33722,2.25884
2723.62460,2.36524
2722.91199,2.49869
2722.19937,2.60726
2721.48675,2.59330
2720.77413,2.57400
2720.06152,2.64489
2719.34890,2.60330
2718.63628,2.48151
2717.92366,2.39757
2717.21105,2.32094
2716.49843,2.24964
2715.78581,2.22440
2715.07319,2.25273
2714.36057,2.28518
2713.64796,2.28932
2712.93534,2.30024
2712.22272,2.39100
2711.51010,2.53674
2710.79749,2.61907
2710.08487,2.63241
2709.37225,2.63637
2708.65963,2.72650
2707.94702,2.97316
2707.23440,3.00421
2706.52178,2.53394
2705.80916,2.37383
2705.09655,2.37435
2704.38393,2.46422
2703.67131,2.59716
2702.95869,2.64679
2702.24607,2.56346
2701.53346,2.44031
2700.82084,2.41805
2700.10822,2.54433
2699.39560,2.53986
2698.68299,2.55384
2697.97037,2.63507
2697.25775,2.79153
2696.54513,3.02858
2695.83252,2.94872
2695.11990,2.50997
2694.40728,2.44622
2693.69466,2.58132
2692.98205,2.55306
2692.26943,2.61843
2691.55681,2.82569
2690.84419,2.74064
2690.13157,2.52987
2689.41896,2.62839
2688.70634,2.50988
2687.99372,2.42047
2687.28110,2.46877
2686.56849,2.68402
2685.85587,3.02476
2685.14325,3.01779
2684.43063,2.80652
2683.71802,2.72057
2683.00540,2.74671
2682.29278,2.81567
2681.58016,2.75693
2680.86755,2.67723
2680.15493,2.73772
2679.44231,2.81698
2678.72969,2.64733
2678.01708,2.67968
2677.30446,2.91943
2676.59184,2.67023
2675.87922,2.64855
2675.16660,2.77886
2674.45399,2.81309
2673.74137,2.68712
2673.02875,2.65849
2672.31613,2.79527
2671.60352,2.82136
2670.89090,2.60240
2670.17828,2.60679
2669.46566,2.75878
2668.75305,2.52667
2668.04043,2.43545
2667.32781,2.48420
2666.61519,2.63706
2665.90258,2.80696
2665.18996,2.81440
2664.47734,2.77587
2663.76472,2.67071
2663.05210,2.57611
2662.33949,2.65178
2661.62687,2.82371
2660.91425,2.82872
2660.20163,2.78823
2659.48902,2.58494
2658.77640,2.54474
2658.06378,2.66868
2657.35116,2.81670
2656.63855,2.55964
2655.92593,2.41707
2655.21331,2.44539
2654.50069,2.51934
2653.78808,2.48819
2653.07546,2.48703
2652.36284,2.52310
2651.65022,2.56248
2650.93760,2.52305
2650.22499,2.49331
2649.51237,2.49265
2648.79975,2.50538
2648.08713,2.57731
2647.37452,2.74209
2646.66190,2.88826
2645.94928,2.88434
2645.23666,2.68315
2644.52405,2.48730
2643.81143,2.36639
2643.09881,2.36004
2642.38619,2.50053
2641.67358,2.96946
2640.96096,2.88108
2640.24834,2.58448
2639.53572,2.56316
2638.82311,2.65929
2638.11049,2.78974
2637.39787,2.86330
2636.68525,2.73661
2635.97263,2.57797
2635.26002,2.39417
2634.54740,2.31639
2633.83478,2.32717
2633.12216,2.41652
2632.40955,2.60062
2631.69693,2.74216
2630.98431,2.80886
2630.27169,2.98328
2629.55908,3.03241
2628.84646,2.87778
2628.13384,2.65494
2627.42122,2.59749
2626.70861,2.81306
2625.99599,2.72686
2625.28337,2.56778
2624.57075,2.51252
2623.85813,2.70792
2623.14552,2.74540
2622.43290,2.45201
2621.72028,2.38355
2621.00766,2.46813
2620.29505,2.66629
2619.58243,2.96803
2618.86981,2.84206
2618.15719,2.72599
2617.44458,2.68281
2616.73196,2.60204
2616.01934,2.55420
2615.30672,2.59943
2614.59411,2.61938
2613.88149,2.66985
2613.16887,2.84628
2612.45625,3.06721
2611.74363,2.79038
2611.03102,2.60741
2610.31840,2.49553
2609.60578,2.45115
2608.89316,2.42824
2608.18055,2.44408
2607.46793,2.55718
2606.75531,2.77666
2606.04269,2.96340
2605.33008,2.84019
2604.61746,2.70933
2603.90484,2.63835
2603.19222,2.62275
2602.47961,2.60354
2601.76699,2.60536
2601.05437,2.67558
2600.34175,2.78171
2599.62914,2.76781
2598.91652,2.70554
2598.20390,2.82693
2597.49128,2.83923
2596.77866,2.64283
2596.06605,2.59062
2595.35343,2.68233
2594.64081,2.72009
2593.92819,2.59711
2593.21558,2.47818
2592.50296,2.40790
2591.79034,2.38287
2591.07772,2.36737
2590.36511,2.34240
2589.65249,2.36495
2588.93987,2.48634
2588.22725,2.73632
2587.51464,2.69228
2586.80202,2.72186
2586.08940,2.68905
2585.37678,2.55528
2584.66416,2.50015
2583.95155,2.65860
2583.23893,2.92664
2582.52631,2.79891
2581.81369,2.92340
2581.10108,3.21626
2580.38846,2.82953
2579.67584,2.69175
2578.96322,2.66628
2578.25061,2.58885
2577.53799,2.49972
2576.82537,2.50372
2576.11275,2.67979
2575.40014,2.62361
2574.68752,2.50040
2573.97490,2.39271
2573.26228,2.34292
2572.54966,2.35521
2571.83705,2.49337
2571.12443,3.00442
2570.41181,2.70063
2569.69919,2.49079
2568.98658,2.59816
2568.27396,2.84657
2567.56134,2.70198
2566.84872,2.63547
2566.13611,2.61222
2565.42349,2.67266
2564.71087,2.71338
2563.99825,2.70763
2563.28564,2.69088
2562.57302,2.69899
2561.86040,2.61033
2561.14778,2.49140
2560.43517,2.43898
2559.72255,2.46475
2559.00993,2.52000
2558.29731,2.53727
2557.58469,2.61119
2556.87208,2.57209
2556.15946,2.51606
2555.44684,2.57794
2554.73422,2.49754
2554.02161,2.46275
2553.30899,2.45256
2552.59637,2.47328
2551.88375,2.43862
2551.17114,2.43323
2550.45852,2.53425
2549.74590,2.79747
2549.03328,2.92909
2548.32067,2.70346
2547.60805,2.58291
2546.89543,2.61804
2546.18281,2.53753
2545.47019,2.45047
2544.75758,2.49875
2544.04496,2.58008
2543.33234,2.62450
2542.61972,2.58162
2541.90711,2.48970
2541.19449,2.35891
2540.48187,2.30681
2539.76925,2.33966
2539.05664,2.36641
2538.34402,2.38212
2537.63140,2.41948
2536.91878,2.37087
2536.20617,2.37470
2535.49355,2.45929
2534.78093,2.57917
2534.06831,2.59606
2533.35570,2.58254
2532.64308,2.62039
2531.93046,2.64649
2531.21784,2.74820
2530.50522,2.83378
2529.79261,2.54814
2529.07999,2.43045
2528.36737,2.43586
2527.65475,2.48863
2526.94214,2.56227
2526.22952,2.69334
2525.51690,2.79479
2524.80428,2.57422
2524.09167,2.39456
2523.37905,2.28356
2522.66643,2.28181
2521.95381,2.41750
2521.24120,2.68163
2520.52858,2.70166
2519.81596,2.74250
2519.10334,2.77556
2518.39072,2.61804
2517.67811,2.44669
2516.96549,2.39375
2516.25287,2.43815
2515.54025,2.57105
2514.82764,2.80566
2514.11502,2.80463
2513.40240,2.57252
2512.68978,2.48507
2511.97717,2.48684
2511.26455,2.50743
2510.55193,2.51304
2509.83931,2.45278
2509.12670,2.41447
2508.41408,2.39544
2507.70146,2.41517
2506.98884,2.55324
2506.27622,2.82559
2505.56361,2.71594
2504.85099,2.55048
2504.13837,2.46788
2503.42575,2.45584
2502.71314,2.47032
2502.00052,2.49905
2501.28790,2.55068
2500.57528,2.60714
2499.86267,2.70832
2499.15005,2.63381
2498.43743,2.59263
2497.72481,2.62788
2497.01220,2.63965
2496.29958,2.64107
2495.58696,2.73661
2494.87434,2.78741
2494.16173,2.98095
2493.44911,2.95042
2492.73649,2.77337
2492.02387,2.54361
2491.31125,2.47959
2490.59864,2.51852
2489.88602,2.58296
2489.17340,2.67210
2488.46078,2.56122
2487.74817,2.51323
2487.03555,2.48573
2486.32293,2.45586
2485.61031,2.49558
2484.89770,2.53246
2484.18508,2.53371
2483.47246,2.58272
2482.75984,2.70298
2482.04723,2.71410
2481.33461,2.55306
2480.62199,2.45246
2479.90937,2.46800
2479.19675,2.49056
2478.48414,2.46363
2477.77152,2.52025
2477.05890,2.57000
2476.34628,2.50461
2475.63367,2.43124
2474.92105,2.49942
2474.20843,2.68835
2473.49581,2.77890
2472.78320,2.57667
2472.07058,2.43622
2471.35796,2.42132
2470.64534,2.51992
2469.93273,2.59565
2469.22011,2.53037
2468.50749,2.42263
2467.79487,2.39206
2467.08225,2.47741
2466.36964,2.65453
2465.65702,2.72928
2464.94440,2.60268
2464.23178,2.45009
2463.51917,2.35717
2462.80655,2.33889
2462.09393,2.34959
2461.38131,2.32098
2460.66870,2.28164
2459.95608,2.27101
2459.24346,2.29834
2458.53084,2.36693
2457.81823,2.45420
2457.10561,2.50886
2456.39299,2.50098
2455.68037,2.44600
2454.96776,2.42419
2454.25514,2.50321
2453.54252,2.64362
2452.82990,2.58211
2452.11728,2.42098
2451.40467,2.29733
2450.69205,2.25632
2449.97943,2.33581
2449.26681,2.61553
2448.55420,2.73325
2447.84158,2.41114
2447.12896,2.35519
2446.41634,2.45109
2445.70373,2.62580
2444.99111,2.67464
2444.27849,2.57424
2443.56587,2.53974
2442.85326,2.60595
2442.14064,2.70444
2441.42802,2.61822
2440.71540,2.53100
2440.00278,2.53455
2439.29017,2.57760
2438.57755,2.60035
2437.86493,2.55091
2437.15231,2.45235
2436.43970,2.39883
2435.72708,2.38657
2435.01446,2.35734
2434.30184,2.32950
2433.58923,2.31667
2432.87661,2.34170
2432.16399,2.41339
2431.45137,2.42644
2430.73876,2.35868
2430.02614,2.26556
2429.31352,2.20041
2428.60090,2.20373
2427.88828,2.30257
2427.17567,2.53881
2426.46305,2.71545
2425.75043,2.72116
2425.03781,2.60631
2424.32520,2.49456
2423.61258,2.43521
2422.89996,2.41851
2422.18734,2.42328
2421.47473,2.44576
2420.76211,2.52939
2420.04949,2.60083
2419.33687,2.59186
2418.62426,2.54258
2417.91164,2.39066
2417.19902,2.26703
2416.48640,2.24117
2415.77379,2.28723
2415.06117,2.32034
2414.34855,2.29510
2413.63593,2.27754
2412.92331,2.33928
2412.21070,2.51125
2411.49808,2.57633
2410.78546,2.44657
2410.07284,2.34934
2409.36023,2.34137
2408.64761,2.38487
2407.93499,2.42295
2407.22237,2.42192
2406.50976,2.40822
2405.79714,2.39749
2405.08452,2.39509
2404.37190,2.42220
2403.65929,2.50092
2402.94667,2.59208
2402.23405,2.55789
2401.52143,2.41053
2400.80881,2.29925
2400.09620,2.28230
2399.38358,2.34011
2398.67096,2.37827
2397.95834,2.36571
2397.24573,2.34661
2396.53311,2.36280
2395.82049,2.43521
2395.10787,2.51967
2394.39526,2.54029
2393.68264,2.47531
2392.97002,2.36326
2392.25740,2.33789
2391.54479,2.40530
2390.83217,2.48660
2390.11955,2.44545
2389.40693,2.38452
2388.69431,2.33397
2387.98170,2.34997
2387.26908,2.45072
2386.55646,2.57093
2385.84384,2.63945
2385.13123,2.58660
2384.41861,2.62198
2383.70599,2.64669
2382.99337,2.54838
2382.28076,2.53141
2381.56814,2.43764
2380.85552,2.40694
2380.14290,2.41053
2379.43029,2.42636
2378.71767,2.43487
2378.00505,2.39936
2377.29243,2.33066
2376.57982,2.24527
2375.86720,2.18024
2375.15458,2.19481
2374.44196,2.34227
2373.72934,2.49243
2373.01673,2.49274
2372.30411,2.36389
2371.59149,2.25475
2370.87887,2.12427
2370.16626,2.04867
2369.45364,2.10482
2368.74102,2.22644
2368.02840,2.33805
2367.31579,2.43212
2366.60317,2.24237
2365.89055,2.09902
2365.17793,2.15171
2364.46532,2.10754
2363.75270,1.95285
2363.04008,1.86445
2362.32746,1.84820
2361.61484,1.89105
2360.90223,1.96604
2360.18961,2.01713
2359.47699,1.99328
2358.76437,1.97177
2358.05176,2.00615
2357.33914,2.05714
2356.62652,2.07156
2355.91390,2.04722
2355.20129,1.95824
2354.48867,1.93296
2353.77605,2.00757
2353.06343,2.15899
2352.35082,2.36948
2351.63820,2.63786
2350.92558,2.50769
2350.21296,2.35805
2349.50034,2.25131
2348.78773,2.18111
2348.07511,2.13989
2347.36249,2.11412
2346.64987,2.08893
2345.93726,2.08225
2345.22464,2.14516
2344.51202,2.33896
2343.79940,2.53710
2343.08679,2.40273
2342.37417,2.29287
2341.66155,2.24650
2340.94893,2.33163
2340.23632,2.40488
2339.52370,2.28408
2338.81108,2.30625
2338.09846,2.43275
2337.38585,2.45888
2336.67323,2.43861
2335.96061,2.38014
2335.24799,2.27288
2334.53537,2.19354
2333.82276,2.27692
2333.11014,2.47432
2332.39752,2.23679
2331.68490,2.12215
2330.97229,2.08145
2330.25967,2.07294
2329.54705,2.07215
2328.83443,2.04106
2328.12182,2.02771
2327.40920,2.09404
2326.69658,2.20491
2325.98396,2.27633
2325.27135,2.37440
2324.55873,2.54905
2323.84611,2.79833
2323.13349,2.56522
2322.42087,2.32008
2321.70826,2.24747
2320.99564,2.27286
2320.28302,2.38672
2319.57040,2.44443
2318.85779,2.31999
2318.14517,2.23565
2317.43255,2.24062
2316.71993,2.24655
2316.00732,2.20557
2315.29470,2.19668
2314.58208,2.23568
2313.86946,2.28186
2313.15685,2.30993
2312.44423,2.32353
2311.73161,2.28346
2311.01899,2.20295
2310.30638,2.14370
2309.59376,2.12852
2308.88114,2.16251
2308.16852,2.24270
2307.45590,2.34019
2306.74329,2.40385
2306.03067,2.44072
2305.31805,2.49388
2304.60543,2.45309
2303.89282,2.38259
2303.18020,2.36993
2302.46758,2.41460
2301.75496,2.46371
2301.04235,2.42286
2300.32973,2.29714
2299.61711,2.25634
2298.90449,2.31213
2298.19188,2.36535
2297.47926,2.44075
2296.76664,2.73552
2296.05402,2.84460
2295.34140,2.50741
2294.62879,2.43297
2293.91617,2.52094
2293.20355,2.66396
2292.49093,2.45048
2291.77832,2.27343
2291.06570,2.21137
2290.35308,2.19129
2289.64046,2.17567
2288.92785,2.17136
2288.21523,2.21307
2287.50261,2.29762
2286.78999,2.33627
2286.07738,2.33137
2285.36476,2.34354
2284.65214,2.36944
2283.93952,2.39869
2283.22690,2.42121
2282.51429,2.42073
2281.80167,2.38375
2281.08905,2.32582
2280.37643,2.28274
2279.66382,2.27643
2278.95120,2.31655
2278.23858,2.34741
2277.52596,2.30181
2276.81335,2.25726
2276.10073,2.26708
2275.38811,2.32216
2274.67549,2.31394
2273.96288,2.25533
2273.25026,2.22813
2272.53764,2.24251
2271.82502,2.27939
2271.11241,2.32034
2270.39979,2.36040
2269.68717,2.35683
2268.97455,2.29973
2268.26193,2.26412
2267.54932,2.26272
2266.83670,2.29076
2266.12408,2.32274
2265.41146,2.31505
2264.69885,2.27029
2263.98623,2.22402
2263.27361,2.19528
2262.56099,2.17650
2261.84838,2.16430
2261.13576,2.16586
2260.42314,2.18433
2259.71052,2.21266
2258.99791,2.23503
2258.28529,2.22889
2257.57267,2.20170
2256.86005,2.17724
2256.14743,2.12869
2255.43482,2.05553
2254.72220,1.99481
2254.00958,1.97174
2253.29696,1.97379
2252.58435,1.97053
2251.87173,1.95158
2251.15911,1.92574
2250.44649,1.90144
2249.73388,1.88284
2249.02126,1.88090
2248.30864,1.89512
2247.59602,1.89323
2246.88341,1.85291
2246.17079,1.81010
2245.45817,1.80093
2244.74555,1.82788
2244.03293,1.86163
2243.32032,1.85635
2242.60770,1.80433
2241.89508,1.74879
2241.18246,1.72452
2240.46985,1.73374
2239.75723,1.75437
2239.04461,1.75917
2238.33199,1.74074
2237.61938,1.71649
2236.90676,1.70037
2236.19414,1.69061
2235.48152,1.67956
2234.76891,1.66438
2234.05629,1.64929
2233.34367,1.63927
2232.63105,1.63087
2231.91844,1.61490
2231.20582,1.59313
2230.49320,1.57807
2229.78058,1.57401
2229.06796,1.57052
2228.35535,1.55681
2227.64273,1.53570
2226.93011,1.51455
2226.21749,1.49357
2225.50488,1.47301
2224.79226,1.46032
2224.07964,1.46188
2223.36702,1.47184
2222.65441,1.47589
2221.94179,1.46772
2221.22917,1.45440
2220.51655,1.44407
2219.80394,1.43697
2219.09132,1.42965
2218.37870,1.42129
2217.66608,1.41212
2216.95346,1.39771
2216.24085,1.37392
2215.52823,1.34556
2214.81561,1.32155
2214.10299,1.30609
2213.39038,1.29791
2212.67776,1.29397
2211.96514,1.29240
2211.25252,1.29297
2210.53991,1.29576
2209.82729,1.29919
2209.11467,1.29871
2208.40205,1.29127
2207.68944,1.28032
2206.97682,1.27101
2206.26420,1.26293
2205.55158,1.25101
2204.83896,1.23322
2204.12635,1.21356
2203.41373,1.19713
2202.70111,1.18680
2201.98849,1.18115
2201.27588,1.17507
2200.56326,1.16583
2199.85064,1.15585
2199.13802,1.14679
2198.42541,1.13662
2197.71279,1.12490
2197.00017,1.11477
2196.28755,1.10769
2195.57494,1.10165
2194.86232,1.09451
2194.14970,1.08501
2193.43708,1.07280
2192.72447,1.06023
2192.01185,1.05136
2191.29923,1.04688
2190.58661,1.04256
2189.87399,1.03430
2189.16138,1.02235
2188.44876,1.00949
2187.73614,0.99837
2187.02352,0.99082
2186.31091,0.98685
2185.59829,0.98378
2184.88567,0.97819
2184.17305,0.96931
2183.46044,0.95901
2182.74782,0.94884
2182.03520,0.93932
2181.32258,0.93094
2180.60997,0.92376
2179.89735,0.91685
2179.18473,0.90931
2178.47211,0.90163
2177.75949,0.89510
2177.04688,0.89055
2176.33426,0.88747
2175.62164,0.88395
2174.90902,0.87787
2174.19641,0.86887
2173.48379,0.85914
2172.77117,0.85169
2172.05855,0.84770
2171.34594,0.84562
2170.63332,0.84239
2169.92070,0.83560
2169.20808,0.82541
2168.49547,0.81447
2167.78285,0.80528
2167.07023,0.79839
2166.35761,0.79317
2165.64499,0.78879
2164.93238,0.78398
2164.21976,0.77753
2163.50714,0.76943
2162.79452,0.76089
2162.08191,0.75320
2161.36929,0.74684
2160.65667,0.74125
2159.94405,0.73554
2159.23144,0.72956
2158.51882,0.72386
2157.80620,0.71878
2157.09358,0.71432
2156.38097,0.71040
2155.66835,0.70645
2154.95573,0.70142
2154.24311,0.69495
2153.53050,0.68807
2152.81788,0.68223
2152.10526,0.67779
2151.39264,0.67365
2150.68002,0.66885
2149.96741,0.66386
2149.25479,0.65954
2148.54217,0.65538
2147.82955,0.65002
2147.11694,0.64329
2146.40432,0.63659
2145.69170,0.63117
2144.97908,0.62680
2144.26647,0.62246
2143.55385,0.61788
2142.84123,0.61349
2142.12861,0.60924
2141.41600,0.60458
2140.70338,0.59957
2139.99076,0.59476
2139.27814,0.59038
2138.56552,0.58640
2137.85291,0.58285
2137.14029,0.57939
2136.42767,0.57509
2135.71505,0.56957
2135.00244,0.56367
2134.28982,0.55853
2133.57720,0.55444
2132.86458,0.55094
2132.15197,0.54743
2131.43935,0.54354
2130.72673,0.53924
2130.01411,0.53472
2129.30150,0.53035
2128.58888,0.52655
2127.87626,0.52332
2127.16364,0.51991
2126.45103,0.51573
2125.73841,0.51146
2125.02579,0.50822
2124.31317,0.50575
2123.60055,0.50266
2122.88794,0.49841
2122.17532,0.49376
2121.46270,0.48951
2120.75008,0.48575
2120.03747,0.48232
2119.32485,0.47926
2118.61223,0.47664
2117.89961,0.47410
2117.18700,0.47098
2116.47438,0.46690
2115.76176,0.46216
2115.04914,0.45764
2114.33653,0.45422
2113.62391,0.45179
2112.91129,0.44921
2112.19867,0.44577
2111.48605,0.44213
2110.77344,0.43921
2110.06082,0.43697
2109.34820,0.43488
2108.63558,0.43273
2107.92297,0.43034
2107.21035,0.42717
2106.49773,0.42296
2105.78511,0.41845
2105.07250,0.41481
2104.35988,0.41239
2103.64726,0.41049
2102.93464,0.40820
2102.22203,0.40513
2101.50941,0.40159
2100.79679,0.39843
2100.08417,0.39627
2099.37155,0.39467
2098.65894,0.39241
2097.94632,0.38912
2097.23370,0.38577
2096.52108,0.38321
2095.80847,0.38106
2095.09585,0.37863
2094.38323,0.37598
2093.67061,0.37338
2092.95800,0.37064
2092.24538,0.36746
2091.53276,0.36406
2090.82014,0.36096
2090.10753,0.35846
2089.39491,0.35641
2088.68229,0.35448
2087.96967,0.35242
2087.25706,0.35012
2086.54444,0.34755
2085.83182,0.34482
2085.11920,0.34221
2084.40658,0.33978
2083.69397,0.33748
2082.98135,0.33545
2082.26873,0.33387
2081.55611,0.33242
2080.84350,0.33070
2080.13088,0.32888
2079.41826,0.32716
2078.70564,0.32529
2077.99303,0.32302
2077.28041,0.32077
2076.56779,0.31904
2075.85517,0.31777
2075.14256,0.31644
2074.42994,0.31475
2073.71732,0.31294
2073.00470,0.31119
2072.29208,0.30915
2071.57947,0.30642
2070.86685,0.30330
2070.15423,0.30050
2069.44161,0.29842
2068.72900,0.29694
2068.01638,0.29570
2067.30376,0.29447
2066.59114,0.29327
2065.87853,0.29211
2065.16591,0.29085
2064.45329,0.28951
2063.74067,0.28823
2063.02806,0.28691
2062.31544,0.28516
2061.60282,0.28290
2060.89020,0.28052
2060.17758,0.27847
2059.46497,0.27692
2058.75235,0.27580
2058.03973,0.27486
2057.32711,0.27383
2056.61450,0.27246
2055.90188,0.27075
2055.18926,0.26893
2054.47664,0.26713
2053.76403,0.26538
2053.05141,0.26381
2052.33879,0.26263
2051.62617,0.26182
2050.91356,0.26118
2050.20094,0.26053
2049.48832,0.25963
2048.77570,0.25816
2048.06309,0.25617
2047.35047,0.25422
2046.63785,0.25279
2045.92523,0.25186
2045.21261,0.25108
2044.50000,0.25007
2043.78738,0.24865
2043.07476,0.24695
2042.36214,0.24537
2041.64953,0.24426
2040.93691,0.24354
2040.22429,0.24277
2039.51167,0.24158
2038.79906,0.24000
2038.08644,0.23823
2037.37382,0.23651
2036.66120,0.23509
2035.94859,0.23418
2035.23597,0.23371
2034.52335,0.23319
2033.81073,0.23217
2033.09811,0.23065
2032.38550,0.22919
2031.67288,0.22842
2030.96026,0.22821
2030.24764,0.22765
2029.53503,0.22606
2028.82241,0.22383
2028.10979,0.22187
2027.39717,0.22067
2026.68456,0.22008
2025.97194,0.21975
2025.25932,0.21944
2024.54670,0.21893
2023.83409,0.21807
2023.12147,0.21698
2022.40885,0.21595
2021.69623,0.21506
2020.98361,0.21412
2020.27100,0.21304
2019.55838,0.21191
2018.84576,0.21080
2018.13314,0.20974
2017.42053,0.20872
2016.70791,0.20769
2015.99529,0.20659
2015.28267,0.20565
2014.57006,0.20525
2013.85744,0.20525
2013.14482,0.20493
2012.43220,0.20391
2011.71959,0.20265
2011.00697,0.20176
2010.29435,0.20132
2009.58173,0.20109
2008.86912,0.20082
2008.15650,0.20025
2007.44388,0.19921
2006.73126,0.19792
2006.01864,0.19676
2005.30603,0.19587
2004.59341,0.19530
2003.88079,0.19507
2003.16817,0.19499
2002.45556,0.19459
2001.74294,0.19347
2001.03032,0.19179
2000.31770,0.19021
1999.60509,0.18931
1998.89247,0.18902
1998.17985,0.18874
1997.46723,0.18811
1996.75462,0.18736
1996.04200,0.18697
1995.32938,0.18703
1994.61676,0.18702
1993.90414,0.18643
1993.19153,0.18544
1992.47891,0.18463
1991.76629,0.18432
1991.05367,0.18436
1990.34106,0.18443
1989.62844,0.18419
1988.91582,0.18336
1988.20320,0.18197
1987.49059,0.18038
1986.77797,0.17901
1986.06535,0.17813
1985.35273,0.17784
1984.64012,0.17806
1983.92750,0.17844
1983.21488,0.17848
1982.50226,0.17786
1981.78964,0.17674
1981.07703,0.17561
1980.36441,0.17479
1979.65179,0.17420
1978.93917,0.17360
1978.22656,0.17286
1977.51394,0.17211
1976.80132,0.17155
1976.08870,0.17125
1975.37609,0.17119
1974.66347,0.17139
1973.95085,0.17178
1973.23823,0.17207
1972.52562,0.17198
1971.81300,0.17152
1971.10038,0.17098
1970.38776,0.17065
1969.67515,0.17049
1968.96253,0.17009
1968.24991,0.16910
1967.53729,0.16785
1966.82467,0.16704
1966.11206,0.16686
1965.39944,0.16684
1964.68682,0.16666
1963.97420,0.16640
1963.26159,0.16638
1962.54897,0.16667
1961.83635,0.16707
1961.12373,0.16733
1960.41112,0.16720
1959.69850,0.16657
1958.98588,0.16576
1958.27326,0.16527
1957.56065,0.16526
1956.84803,0.16528
1956.13541,0.16471
1955.42279,0.16348
1954.71017,0.16229
1953.99756,0.16197
1953.28494,0.16259
1952.57232,0.16338
1951.85970,0.16364
1951.14709,0.16333
1950.43447,0.16287
1949.72185,0.16270
1949.00923,0.16290
1948.29662,0.16306
1947.58400,0.16277
1946.87138,0.16222
1946.15876,0.16188
1945.44615,0.16181
1944.73353,0.16172
1944.02091,0.16143
1943.30829,0.16112
1942.59567,0.16098
1941.88306,0.16078
1941.17044,0.16029
1940.45782,0.15971
1939.74520,0.15947
1939.03259,0.15967
1938.31997,0.15992
1937.60735,0.16001
1936.89473,0.16006
1936.18212,0.16009
1935.46950,0.15989
1934.75688,0.15945
1934.04426,0.15910
1933.33165,0.15918
1932.61903,0.15964
1931.90641,0.16016
1931.19379,0.16043
1930.48118,0.16041
1929.76856,0.16016
1929.05594,0.15980
1928.34332,0.15937
1927.63070,0.15890
1926.91809,0.15848
1926.20547,0.15830
1925.49285,0.15856
1924.78023,0.15911
1924.06762,0.15950
1923.35500,0.15921
1922.64238,0.15828
1921.92976,0.15736
1921.21715,0.15702
1920.50453,0.15726
1919.79191,0.15771
1919.07929,0.15797
1918.36668,0.15796
1917.65406,0.15794
1916.94144,0.15803
1916.22882,0.15801
1915.51620,0.15778
1914.80359,0.15759
1914.09097,0.15776
1913.37835,0.15833
1912.66573,0.15903
1911.95312,0.15957
1911.24050,0.15988
1910.52788,0.16000
1909.81526,0.15991
1909.10265,0.15962
1908.39003,0.15935
1907.67741,0.15937
1906.96479,0.15956
1906.25218,0.15960
1905.53956,0.15936
1904.82694,0.15894
1904.11432,0.15862
1903.40171,0.15862
1902.68909,0.15892
1901.97647,0.15920
1901.26385,0.15937
1900.55123,0.15960
1899.83862,0.15997
1899.12600,0.16028
1898.41338,0.16032
1897.70076,0.16011
1896.98815,0.15981
1896.27553,0.15970
1895.56291,0.15999
1894.85029,0.16063
1894.13768,0.16119
1893.42506,0.16137
1892.71244,0.16128
1891.99982,0.16133
1891.28721,0.16173
1890.57459,0.16234
1889.86197,0.16292
1889.14935,0.16330
1888.43673,0.16341
1887.72412,0.16324
1887.01150,0.16294
1886.29888,0.16288
1885.58626,0.16333
1884.87365,0.16419
1884.16103,0.16503
1883.44841,0.16548
1882.73579,0.16548
1882.02318,0.16516
1881.31056,0.16475
1880.59794,0.16454
1879.88532,0.16472
1879.17271,0.16521
1878.46009,0.16585
1877.74747,0.16664
1877.03485,0.16749
1876.32223,0.16812
1875.60962,0.16834
1874.89700,0.16833
1874.18438,0.16832
1873.47176,0.16830
1872.75915,0.16825
1872.04653,0.16835
1871.33391,0.16881
1870.62129,0.16953
1869.90868,0.17027
1869.19606,0.17083
1868.48344,0.17113
1867.77082,0.17125
1867.05821,0.17127
1866.34559,0.17131
1865.63297,0.17149
1864.92035,0.17186
1864.20774,0.17248
1863.49512,0.17331
1862.78250,0.17414
1862.06988,0.17464
1861.35726,0.17472
1860.64465,0.17466
1859.93203,0.17483
1859.21941,0.17529
1858.50679,0.17575
1857.79418,0.17588
1857.08156,0.17575
1856.36894,0.17588
1855.65632,0.17655
1854.94371,0.17737
1854.23109,0.17777
1853.51847,0.17778
1852.80585,0.17800
1852.09324,0.17884
1851.38062,0.18004
1850.66800,0.18093
1849.95538,0.18109
1849.24276,0.18082
1848.53015,0.18084
1847.81753,0.18163
1847.10491,0.18274
1846.39229,0.18312
1845.67968,0.18241
1844.96706,0.18146
1844.25444,0.18183
1843.54182,0.18339
1842.82921,0.18458
1842.11659,0.18506
1841.40397,0.18546
1840.69135,0.18617
1839.97874,0.18692
1839.26612,0.18723
1838.55350,0.18707
1837.84088,0.18692
1837.12826,0.18723
1836.41565,0.18785
1835.70303,0.18841
1834.99041,0.18907
1834.27779,0.19035
1833.56518,0.19196
1832.85256,0.19293
1832.13994,0.19301
1831.42732,0.19296
1830.71471,0.19359
1830.00209,0.19486
1829.28947,0.19605
1828.57685,0.19680
1827.86424,0.19712
1827.15162,0.19700
1826.43900,0.19658
1825.72638,0.19628
1825.01377,0.19648
1824.30115,0.19702
1823.58853,0.19754
1822.87591,0.19801
1822.16329,0.19851
1821.45068,0.19917
1820.73806,0.19996
1820.02544,0.20056
1819.31282,0.20074
1818.60021,0.20079
1817.88759,0.20119
1817.17497,0.20206
1816.46235,0.20308
1815.74974,0.20392
1815.03712,0.20458
1814.32450,0.20528
1813.61188,0.20607
1812.89927,0.20671
1812.18665,0.20701
1811.47403,0.20723
1810.76141,0.20768
1810.04879,0.20834
1809.33618,0.20906
1808.62356,0.20975
1807.91094,0.21026
1807.19832,0.21051
1806.48571,0.21074
1805.77309,0.21130
1805.06047,0.21215
1804.34785,0.21286
1803.63524,0.21317
1802.92262,0.21341
1802.21000,0.21388
1801.49738,0.21424
1800.78477,0.21403
1800.07215,0.21363
1799.35953,0.21381
1798.64691,0.21456
1797.93429,0.21546
1797.22168,0.21647
1796.50906,0.21768
1795.79644,0.21865
1795.08382,0.21888
1794.37121,0.21860
1793.65859,0.21854
1792.94597,0.21929
1792.23335,0.22077
1791.52074,0.22226
1790.80812,0.22324
1790.09550,0.22365
1789.38288,0.22382
1788.67027,0.22396
1787.95765,0.22419
1787.24503,0.22452
1786.53241,0.22491
1785.81980,0.22526
1785.10718,0.22552
1784.39456,0.22584
1783.68194,0.22628
1782.96932,0.22670
1782.25671,0.22716
1781.54409,0.22804
1780.83147,0.22949
1780.11885,0.23099
1779.40624,0.23200
1778.69362,0.23255
1777.98100,0.23304
1777.26838,0.23366
1776.55577,0.23432
1775.84315,0.23478
1775.13053,0.23483
1774.41791,0.23447
1773.70530,0.23396
1772.99268,0.23394
1772.28006,0.23500
1771.56744,0.23698
1770.85482,0.23890
1770.14221,0.24012
1769.42959,0.24054
1768.71697,0.24051
1768.00435,0.24076
1767.29174,0.24154
1766.57912,0.24235
1765.86650,0.24277
1765.15388,0.24292
1764.44127,0.24333
1763.72865,0.24434
1763.01603,0.24579
1762.30341,0.24714
1761.59080,0.24791
1760.87818,0.24824
1760.16556,0.24865
1759.45294,0.24928
1758.74032,0.24984
1758.02771,0.24984
1757.31509,0.24932
1756.60247,0.24921
1755.88985,0.25023
1755.17724,0.25202
1754.46462,0.25378
1753.75200,0.25517
1753.03938,0.25619
1752.32677,0.25710
1751.61415,0.25800
1750.90153,0.25870
1750.18891,0.25917
1749.47630,0.25979
1748.76368,0.26058
1748.05106,0.26110
1747.33844,0.26125
1746.62583,0.26142
1745.91321,0.26187
1745.20059,0.26254
1744.48797,0.26350
1743.77535,0.26471
1743.06274,0.26586
1742.35012,0.26658
1741.63750,0.26703
1740.92488,0.26766
1740.21227,0.26884
1739.49965,0.27029
1738.78703,0.27147
1738.07441,0.27239
1737.36180,0.27295
1736.64918,0.27263
1735.93656,0.27133
1735.22394,0.26999
1734.51133,0.27043
1733.79871,0.27297
1733.08609,0.27519
1732.37347,0.27653
1731.66085,0.27767
1730.94824,0.27906
1730.23562,0.28059
1729.52300,0.28166
1728.81038,0.28211
1728.09777,0.28231
1727.38515,0.28269
1726.67253,0.28344
1725.95991,0.28475
1725.24730,0.28642
1724.53468,0.28774
1723.82206,0.28821
1723.10944,0.28829
1722.39683,0.28865
1721.68421,0.28925
1720.97159,0.28942
1720.25897,0.28863
1719.54636,0.28707
1718.83374,0.28617
1718.12112,0.28805
1717.40850,0.29191
1716.69588,0.29468
1715.98327,0.29633
1715.27065,0.29791
1714.55803,0.29966
1713.84541,0.30099
1713.13280,0.30164
1712.42018,0.30184
1711.70756,0.30200
1710.99494,0.30257
1710.28233,0.30369
1709.56971,0.30496
1708.85709,0.30586
1708.14447,0.30657
1707.43186,0.30778
1706.71924,0.30963
1706.00662,0.31111
1705.29400,0.31169
1704.58138,0.31248
1703.86877,0.31428
1703.15615,0.31604
1702.44353,0.31646
1701.73091,0.31545
1701.01830,0.31468
1700.30568,0.31726
1699.59306,0.32053
1698.88044,0.32143
1698.16783,0.32108
1697.45521,0.32041
1696.74259,0.31991
1696.02997,0.32082
1695.31736,0.32362
1694.60474,0.32654
1693.89212,0.32890
1693.17950,0.33108
1692.46688,0.33280
1691.75427,0.33363
1691.04165,0.33389
1690.32903,0.33448
1689.61641,0.33581
1688.90380,0.33764
1688.19118,0.33978
1687.47856,0.34202
1686.76594,0.34387
1686.05333,0.34516
1685.34071,0.34660
1684.62809,0.34939
1683.91547,0.35248
1683.20286,0.35365
1682.49024,0.35385
1681.77762,0.35477
1681.06500,0.35696
1680.35239,0.36006
1679.63977,0.36260
1678.92715,0.36379
1678.21453,0.36441
1677.50191,0.36543
1676.78930,0.36706
1676.07668,0.36879
1675.36406,0.37025
1674.65144,0.37162
1673.93883,0.37333
1673.22621,0.37554
1672.51359,0.37817
1671.80097,0.38090
1671.08836,0.38326
1670.37574,0.38516
1669.66312,0.38746
1668.95050,0.39065
1668.23789,0.39358
1667.52527,0.39534
1666.81265,0.39642
1666.10003,0.39756
1665.38741,0.39897
1664.67480,0.40039
1663.96218,0.40189
1663.24956,0.40410
1662.53694,0.40727
1661.82433,0.41049
1661.11171,0.41307
1660.39909,0.41527
1659.68647,0.41763
1658.97386,0.42017
1658.26124,0.42245
1657.54862,0.42389
1656.83600,0.42433
1656.12339,0.42409
1655.41077,0.42344
1654.69815,0.42283
1653.98553,0.42370
1653.27291,0.42931
1652.56030,0.43574
1651.84768,0.43791
1651.13506,0.43809
1650.42244,0.43772
1649.70983,0.43708
1648.99721,0.43687
1648.28459,0.43795
1647.57197,0.44068
1646.85936,0.44462
1646.14674,0.44868
1645.43412,0.45118
1644.72150,0.45184
1644.00889,0.45186
1643.29627,0.45216
1642.58365,0.45272
1641.87103,0.45313
1641.15842,0.45340
1640.44580,0.45362
1639.73318,0.45360
1639.02056,0.45338
1638.30794,0.45354
1637.59533,0.45435
1636.88271,0.45533
1636.17009,0.45685
1635.45747,0.46006
1634.74486,0.46332
1634.03224,0.46455
1633.31962,0.46461
1632.60700,0.46493
1631.89439,0.46632
1631.18177,0.46870
1630.46915,0.47086
1629.75653,0.47142
1629.04392,0.47037
1628.33130,0.46939
1627.61868,0.47004
1626.90606,0.47170
1626.19344,0.47299
1625.48083,0.47359
1624.76821,0.47355
1624.05559,0.47287
1623.34297,0.47179
1622.63036,0.47088
1621.91774,0.47053
1621.20512,0.47086
1620.49250,0.47177
1619.77989,0.47286
1619.06727,0.47364
1618.35465,0.47420
1617.64203,0.47505
1616.92942,0.47648
1616.21680,0.47785
1615.50418,0.47883
1614.79156,0.47980
1614.07894,0.48086
1613.36633,0.48167
1612.65371,0.48218
1611.94109,0.48274
1611.22847,0.48372
1610.51586,0.48499
1609.80324,0.48604
1609.09062,0.48661
1608.37800,0.48702
1607.66539,0.48777
1606.95277,0.48914
1606.24015,0.49094
1605.52753,0.49243
1604.81492,0.49301
1604.10230,0.49303
1603.38968,0.49326
1602.67706,0.49388
1601.96445,0.49483
1601.25183,0.49645
1600.53921,0.49880
1599.82659,0.50103
1599.11397,0.50245
1598.40136,0.50357
1597.68874,0.50524
1596.97612,0.50706
1596.26350,0.50782
1595.55089,0.50760
1594.83827,0.50800
1594.12565,0.50987
1593.41303,0.51233
1592.70042,0.51435
1591.98780,0.51591
1591.27518,0.51720
1590.56256,0.51815
1589.84995,0.51883
1589.13733,0.51964
1588.42471,0.52081
1587.71209,0.52210
1586.99947,0.52339
1586.28686,0.52488
1585.57424,0.52629
1584.86162,0.52685
1584.14900,0.52649
1583.43639,0.52624
1582.72377,0.52692
1582.01115,0.52826
1581.29853,0.52948
1580.58592,0.53013
1579.87330,0.53044
1579.16068,0.53074
1578.44806,0.53080
1577.73545,0.53041
1577.02283,0.53069
1576.31021,0.53363
1575.59759,0.53772
1574.88497,0.53980
1574.17236,0.54007
1573.45974,0.53994
1572.74712,0.54006
1572.03450,0.53987
1571.32189,0.53828
1570.60927,0.53545
1569.89665,0.53417
1569.18403,0.53669
1568.47142,0.54072
1567.75880,0.54363
1567.04618,0.54559
1566.33356,0.54753
1565.62095,0.54962
1564.90833,0.55098
1564.19571,0.55078
1563.48309,0.54946
1562.77048,0.54772
1562.05786,0.54564
1561.34524,0.54276
1560.63262,0.53877
1559.92000,0.53482
1559.20739,0.53414
1558.49477,0.53792
1557.78215,0.54325
1557.06953,0.54721
1556.35692,0.54939
1555.64430,0.55078
1554.93168,0.55260
1554.21906,0.55457
1553.50645,0.55465
1552.79383,0.55227
1552.08121,0.54879
1551.36859,0.54570
1550.65598,0.54480
1549.94336,0.54709
1549.23074,0.55086
1548.51812,0.55340
1547.80550,0.55373
1547.09289,0.55241
1546.38027,0.55068
1545.66765,0.54998
1544.95503,0.55025
1544.24242,0.54932
1543.52980,0.54619
1542.81718,0.54255
1542.10456,0.54094
1541.39195,0.54127
1540.67933,0.54094
1539.96671,0.54028
1539.25409,0.54294
1538.54148,0.54767
1537.82886,0.55059
1537.11624,0.55129
1536.40362,0.55051
1535.69100,0.54863
1534.97839,0.54582
1534.26577,0.54316
1533.55315,0.54278
1532.84053,0.54489
1532.12792,0.54705
1531.41530,0.54774
1530.70268,0.54686
1529.99006,0.54524
1529.27745,0.54408
1528.56483,0.54389
1527.85221,0.54353
1527.13959,0.54138
1526.42698,0.53770
1525.71436,0.53470
1525.00174,0.53377
1524.28912,0.53382
1523.57651,0.53353
1522.86389,0.53303
1522.15127,0.53334
1521.43865,0.53495
1520.72603,0.53625
1520.01342,0.53531
1519.30080,0.53275
1518.58818,0.53079
1517.87556,0.53225
1517.16295,0.53776
1516.45033,0.54241
1515.73771,0.54299
1515.02509,0.54183
1514.31248,0.54121
1513.59986,0.54124
1512.88724,0.54149
1512.17462,0.54172
1511.46201,0.54160
1510.74939,0.54078
1510.03677,0.53930
1509.32415,0.53753
1508.61153,0.53615
1507.89892,0.53622
1507.18630,0.53812
1506.47368,0.54095
1505.76106,0.54282
1505.04845,0.54337
1504.33583,0.54295
1503.62321,0.54203
1502.91059,0.54164
1502.19798,0.54291
1501.48536,0.54582
1500.77274,0.54914
1500.06012,0.55186
1499.34751,0.55377
1498.63489,0.55458
1497.92227,0.55384
1497.20965,0.55237
1496.49704,0.55263
1495.78442,0.55577
1495.07180,0.55937
1494.35918,0.56145
1493.64656,0.56242
1492.93395,0.56320
1492.22133,0.56409
1491.50871,0.56501
1490.79609,0.56597
1490.08348,0.56712
1489.37086,0.56908
1488.65824,0.57224
1487.94562,0.57626
1487.23301,0.57953
1486.52039,0.58051
1485.80777,0.58003
1485.09515,0.58019
1484.38254,0.58202
1483.66992,0.58475
1482.95730,0.58714
1482.24468,0.58902
1481.53206,0.59114
1480.81945,0.59353
1480.10683,0.59545
1479.39421,0.59684
1478.68159,0.59829
1477.96898,0.59981
1477.25636,0.60102
1476.54374,0.60227
1475.83112,0.60407
1475.11851,0.60551
1474.40589,0.60532
1473.69327,0.60391
1472.98065,0.60380
1472.26804,0.60672
1471.55542,0.60982
1470.84280,0.61043
1470.13018,0.60923
1469.41756,0.60785
1468.70495,0.60735
1467.99233,0.60796
1467.27971,0.60893
1466.56709,0.60928
1465.85448,0.60905
1465.14186,0.60960
1464.42924,0.61136
1463.71662,0.61250
1463.00401,0.61192
1462.29139,0.61000
1461.57877,0.60743
1460.86615,0.60447
1460.15354,0.60073
1459.44092,0.59560
1458.72830,0.58911
1458.01568,0.58301
1457.30307,0.58103
1456.59045,0.58433
1455.87783,0.58817
1455.16521,0.58952
1454.45259,0.58901
1453.73998,0.58731
1453.02736,0.58454
1452.31474,0.58136
1451.60212,0.57874
1450.88951,0.57673
1450.17689,0.57451
1449.46427,0.57132
1448.75165,0.56713
1448.03904,0.56321
1447.32642,0.56124
1446.61380,0.56078
1445.90118,0.55960
1445.18857,0.55632
1444.47595,0.55168
1443.76333,0.54747
1443.05071,0.54436
1442.33809,0.54153
1441.62548,0.53832
1440.91286,0.53528
1440.20024,0.53323
1439.48762,0.53206
1438.77501,0.53094
1438.06239,0.52918
1437.34977,0.52617
1436.63715,0.52141
1435.92454,0.51583
1435.21192,0.51078
1434.49930,0.50658
1433.78668,0.50324
1433.07407,0.50033
1432.36145,0.49704
1431.64883,0.49308
1430.93621,0.48926
1430.22359,0.48660
1429.51098,0.48471
1428.79836,0.48206
1428.08574,0.47825
1427.37312,0.47427
1426.66051,0.47108
1425.94789,0.46852
1425.23527,0.46582
1424.52265,0.46282
1423.81004,0.46008
1423.09742,0.45775
1422.38480,0.45549
1421.67218,0.45309
1420.95957,0.45037
1420.24695,0.44668
1419.53433,0.44184
1418.82171,0.43786
1418.10910,0.43587
1417.39648,0.43441
1416.68386,0.43234
1415.97124,0.42964
1415.25862,0.42672
1414.54601,0.42391
1413.83339,0.42159
1413.12077,0.42005
1412.40815,0.41893
1411.69554,0.41728
1410.98292,0.41450
1410.27030,0.41115
1409.55768,0.40833
1408.84507,0.40645
1408.13245,0.40506
1407.41983,0.40363
1406.70721,0.40166
1405.99460,0.39869
1405.28198,0.39519
1404.56936,0.39280
1403.85674,0.39202
1403.14412,0.39173
1402.43151,0.39125
1401.71889,0.39078
1401.00627,0.39008
1400.29365,0.38834
1399.58104,0.38536
1398.86842,0.38260
1398.15580,0.38117
1397.44318,0.38033
1396.73057,0.37908
1396.01795,0.37740
1395.30533,0.37587
1394.59271,0.37490
1393.88010,0.37422
1393.16748,0.37318
1392.45486,0.37153
1391.74224,0.36989
1391.02962,0.36929
1390.31701,0.36967
1389.60439,0.36966
1388.89177,0.36823
1388.17915,0.36599
1387.46654,0.36492
1386.75392,0.36565
1386.04130,0.36632
1385.32868,0.36544
1384.61607,0.36355
1383.90345,0.36206
1383.19083,0.36148
1382.47821,0.36126
1381.76560,0.36080
1381.05298,0.35980
1380.34036,0.35790
1379.62774,0.35524
1378.91513,0.35288
1378.20251,0.35190
1377.48989,0.35212
1376.77727,0.35238
1376.06465,0.35172
1375.35204,0.35005
1374.63942,0.34828
1373.92680,0.34768
1373.21418,0.34835
1372.50157,0.34894
1371.78895,0.34854
1371.07633,0.34777
1370.36371,0.34770
1369.65110,0.34842
1368.93848,0.34882
1368.22586,0.34803
1367.51324,0.34656
1366.80063,0.34556
1366.08801,0.34554
1365.37539,0.34611
1364.66277,0.34660
1363.95015,0.34681
1363.23754,0.34703
1362.52492,0.34735
1361.81230,0.34718
1361.09968,0.34628
1360.38707,0.34535
1359.67445,0.34506
1358.96183,0.34536
1358.24921,0.34606
1357.53660,0.34710
1356.82398,0.34822
1356.11136,0.34904
1355.39874,0.34948
1354.68613,0.34976
1353.97351,0.35000
1353.26089,0.35035
1352.54827,0.35109
1351.83565,0.35234
1351.12304,0.35375
1350.41042,0.35482
1349.69780,0.35560
1348.98518,0.35646
1348.27257,0.35741
1347.55995,0.35803
1346.84733,0.35830
1346.13471,0.35857
1345.42210,0.35901
1344.70948,0.35959
1343.99686,0.36046
1343.28424,0.36173
1342.57163,0.36301
1341.85901,0.36388
1341.14639,0.36437
1340.43377,0.36474
1339.72116,0.36512
1339.00854,0.36566
1338.29592,0.36660
1337.58330,0.36806
1336.87068,0.36980
1336.15807,0.37156
1335.44545,0.37331
1334.73283,0.37503
1334.02021,0.37649
1333.30760,0.37735
1332.59498,0.37773
1331.88236,0.37819
1331.16974,0.37913
1330.45713,0.38036
1329.74451,0.38157
1329.03189,0.38274
1328.31927,0.38410
1327.60666,0.38586
1326.89404,0.38801
1326.18142,0.39027
1325.46880,0.39224
1324.75618,0.39372
1324.04357,0.39480
1323.33095,0.39602
1322.61833,0.39789
1321.90571,0.40012
1321.19310,0.40171
1320.48048,0.40243
1319.76786,0.40341
1319.05524,0.40547
1318.34263,0.40788
1317.63001,0.40963
1316.91739,0.41102
1316.20477,0.41316
1315.49216,0.41641
1314.77954,0.42014
1314.06692,0.42385
1313.35430,0.42761
1312.64169,0.43116
1311.92907,0.43369
1311.21645,0.43506
1310.50383,0.43621
1309.79121,0.43792
1309.07860,0.44025
1308.36598,0.44295
1307.65336,0.44595
1306.94074,0.44930
1306.22813,0.45292
1305.51551,0.45657
1304.80289,0.46006
1304.09027,0.46361
1303.37766,0.46742
1302.66504,0.47135
1301.95242,0.47536
1301.23980,0.47988
1300.52719,0.48501
1299.81457,0.48997
1299.10195,0.49399
1298.38933,0.49728
1297.67671,0.50068
1296.96410,0.50464
1296.25148,0.50855
1295.53886,0.51178
1294.82624,0.51501
1294.11363,0.51985
1293.40101,0.52670
1292.68839,0.53401
1291.97577,0.54019
1291.26316,0.54524
1290.55054,0.55010
1289.83792,0.55513
1289.12530,0.56015
1288.41269,0.56523
1287.70007,0.57094
1286.98745,0.57742
1286.27483,0.58388
1285.56221,0.58959
1284.84960,0.59519
1284.13698,0.60227
1283.42436,0.61162
1282.71174,0.62229
1281.99913,0.63255
1281.28651,0.64120
1280.57389,0.64804
1279.86127,0.65390
1279.14866,0.66003
1278.43604,0.66716
1277.72342,0.67481
1277.01080,0.68224
1276.29819,0.69025
1275.58557,0.70100
1274.87295,0.71507
1274.16033,0.72978
1273.44772,0.74178
1272.73510,0.75077
1272.02248,0.75906
1271.30986,0.76844
1270.59724,0.77910
1269.88463,0.79104
1269.17201,0.80466
1268.45939,0.81998
1267.74677,0.83618
1267.03416,0.85169
1266.32154,0.86466
1265.60892,0.87496
1264.89630,0.88550
1264.18369,0.90005
1263.47107,0.91940
1262.75845,0.94012
1262.04583,0.95780
1261.33322,0.97091
1260.62060,0.98177
1259.90798,0.99465
1259.19536,1.01280
1258.48274,1.03611
1257.77013,1.06124
1257.05751,1.08437
1256.34489,1.10386
1255.63227,1.12022
1254.91966,1.13526
1254.20704,1.15163
1253.49442,1.17073
1252.78180,1.19089
1252.06919,1.20942
1251.35657,1.22754
1250.64395,1.24890
1249.93133,1.27078
1249.21872,1.28419
1248.50610,1.28760
1247.79348,1.29246
1247.08086,1.30957
1246.36824,1.33577
1245.65563,1.35749
1244.94301,1.36656
1244.23039,1.36807
1243.51777,1.37154
1242.80516,1.38075
1242.09254,1.39253
1241.37992,1.40058
1240.66730,1.40080
1239.95469,1.39639
1239.24207,1.39488
1238.52945,1.40023
1237.81683,1.41170
1237.10422,1.42721
1236.39160,1.44427
1235.67898,1.45911
1234.96636,1.47043
1234.25375,1.47739
1233.54113,1.47403
1232.82851,1.45813
1232.11589,1.43907
1231.40327,1.42792
1230.69066,1.42668
1229.97804,1.42928
1229.26542,1.42861
1228.55280,1.42255
1227.84019,1.41448
1227.12757,1.41128
1226.41495,1.41340
1225.70233,1.41526
1224.98972,1.41671
1224.27710,1.42208
1223.56448,1.43057
1222.85186,1.43376
1222.13925,1.42588
1221.42663,1.41202
1220.71401,1.40288
1220.00139,1.40449
1219.28877,1.41474
1218.57616,1.42569
1217.86354,1.42851
1217.15092,1.42077
1216.43830,1.40853
1215.72569,1.39837
1215.01307,1.39190
1214.30045,1.38835
1213.58783,1.38723
1212.87522,1.38935
1212.16260,1.39377
1211.44998,1.39772
1210.73736,1.40120
1210.02475,1.40402
1209.31213,1.40063
1208.59951,1.38633
1207.88689,1.36533
1207.17427,1.34545
1206.46166,1.32934
1205.74904,1.31653
1205.03642,1.30952
1204.32380,1.31273
1203.61119,1.32651
1202.89857,1.34627
1202.18595,1.36717
1201.47333,1.38390
1200.76072,1.39063
1200.04810,1.38750
1199.33548,1.38209
1198.62286,1.38063
1197.91025,1.37958
1197.19763,1.37283
1196.48501,1.36257
1195.77239,1.35704
1195.05978,1.36296
1194.34716,1.37765
1193.63454,1.38920
1192.92192,1.38955
1192.20930,1.38434
1191.49669,1.38306
1190.78407,1.38515
1190.07145,1.38219
1189.35883,1.36915
1188.64622,1.34947
1187.93360,1.33255
1187.22098,1.32679
1186.50836,1.33328
1185.79575,1.34562
1185.08313,1.35487
1184.37051,1.35549
1183.65789,1.34790
1182.94528,1.33418
1182.23266,1.31541
1181.52004,1.29573
1180.80742,1.28296
1180.09480,1.28267
1179.38219,1.29227
1178.66957,1.30079
1177.95695,1.29748
1177.24433,1.28460
1176.53172,1.27240
1175.81910,1.26553
1175.10648,1.26237
1174.39386,1.26208
1173.68125,1.26802
1172.96863,1.27963
1172.25601,1.28637
1171.54339,1.27593
1170.83078,1.24797
1170.11816,1.21715
1169.40554,1.20225
1168.69292,1.20915
1167.98030,1.22385
1167.26769,1.22519
1166.55507,1.20790
1165.84245,1.18557
1165.12983,1.17163
1164.41722,1.16893
1163.70460,1.16998
1162.99198,1.16678
1162.27936,1.16034
1161.56675,1.15677
1160.85413,1.15735
1160.14151,1.15521
1159.42889,1.14419
1158.71628,1.12775
1158.00366,1.11383
1157.29104,1.10560
1156.57842,1.10070
1155.86581,1.09543
1155.15319,1.08780
1154.44057,1.07871
1153.72795,1.07166
1153.01533,1.06924
1152.30272,1.07003
1151.59010,1.07010
1150.87748,1.06587
1150.16486,1.05649
1149.45225,1.04626
1148.73963,1.04188
1148.02701,1.04597
1147.31439,1.05530
1146.60178,1.06515
1145.88916,1.07061
1145.17654,1.06517
1144.46392,1.04654
1143.75131,1.02315
1143.03869,1.00606
1142.32607,0.99764
1141.61345,0.99331
1140.90083,0.98981
1140.18822,0.98760
1139.47560,0.98731
1138.76298,0.98874
1138.05036,0.99083
1137.33775,0.99099
1136.62513,0.98783
1135.91251,0.98337
1135.19989,0.98066
1134.48728,0.97930
1133.77466,0.97560
1133.06204,0.96809
1132.34942,0.96000
1131.63681,0.95423
1130.92419,0.94989
1130.21157,0.94550
1129.49895,0.94125
1128.78633,0.93703
1128.07372,0.93239
1127.36110,0.92891
1126.64848,0.92866
1125.93586,0.93121
1125.22325,0.93385
1124.51063,0.93375
1123.79801,0.92990
1123.08539,0.92337
1122.37278,0.91658
1121.66016,0.91170
1120.94754,0.90800
1120.23492,0.90296
1119.52231,0.89659
1118.80969,0.89191
1118.09707,0.89247
1117.38445,0.89822
1116.67184,0.90416
1115.95922,0.90531
1115.24660,0.90158
1114.53398,0.89713
1113.82136,0.89566
1113.10875,0.89741
1112.39613,0.89997
1111.68351,0.90031
1110.97089,0.89770
1110.25828,0.89547
1109.54566,0.89755
1108.83304,0.90254
1108.12042,0.90398
1107.40781,0.89848
1106.69519,0.89083
1105.98257,0.88711
1105.26995,0.88647
1104.55734,0.88354
1103.84472,0.87754
1103.13210,0.87486
1102.41948,0.88093
1101.70686,0.89298
1100.99425,0.90234
1100.28163,0.90285
1099.56901,0.89631
1098.85639,0.88849
1098.14378,0.88224
1097.43116,0.87841
1096.71854,0.88032
1096.00592,0.89018
1095.29331,0.90233
1094.58069,0.90745
1093.86807,0.90428
1093.15545,0.89920
1092.44284,0.89618
1091.73022,0.89480
1091.01760,0.89381
1090.30498,0.89198
1089.59237,0.88832
1088.87975,0.88338
1088.16713,0.88009
1087.45451,0.88205
1086.74189,0.88910
1086.02928,0.89553
1085.31666,0.89625
1084.60404,0.89355
1083.89142,0.89115
1083.17881,0.88734
1082.46619,0.87971
1081.75357,0.87224
1081.04095,0.87367
1080.32834,0.88760
1079.61572,0.90599
1078.90310,0.91439
1078.19048,0.90521
1077.47787,0.88459
1076.76525,0.86616
1076.05263,0.85947
1075.34001,0.86524
1074.62739,0.87955
1073.91478,0.89792
1073.20216,0.91525
1072.48954,0.92503
1071.77692,0.92379
1071.06431,0.91588
1070.35169,0.90887
1069.63907,0.90739
1068.92645,0.91190
1068.21384,0.91946
1067.50122,0.92539
1066.78860,0.92498
1066.07598,0.91721
1065.36337,0.90941
1064.65075,0.91307
1063.93813,0.93033
1063.22551,0.94853
1062.51289,0.95520
1061.80028,0.95093
1061.08766,0.93999
1060.37504,0.92625
1059.66242,0.91751
1058.94981,0.91866
1058.23719,0.92539
1057.52457,0.93169
1056.81195,0.93571
1056.09934,0.93608
1055.38672,0.93137
1054.67410,0.92478
1053.96148,0.92265
1053.24887,0.92623
1052.53625,0.93055
1051.82363,0.93215
1051.11101,0.93261
1050.39840,0.93386
1049.68578,0.93420
1048.97316,0.93107
1048.26054,0.92874
1047.54792,0.93349
1046.83531,0.94440
1046.12269,0.95850
1045.41007,0.97506
1044.69745,0.99044
1043.98484,0.99619
1043.27222,0.98980
1042.55960,0.98024
1041.84698,0.97311
1041.13437,0.96363
1040.42175,0.95047
1039.70913,0.94525
1038.99651,0.95745
1038.28390,0.97872
1037.57128,0.99169
1036.85866,0.99236
1036.14604,0.99010
1035.43342,0.98918
1034.72081,0.98609
1034.00819,0.98014
1033.29557,0.98004
1032.58295,0.99423
1031.87034,1.01859
1031.15772,1.03783
1030.44510,1.04112
1029.73248,1.03267
1029.01987,1.02305
1028.30725,1.01802
1027.59463,1.01507
1026.88201,1.00955
1026.16940,1.00006
1025.45678,0.99076
1024.74416,0.98414
1024.03154,0.98161
1023.31892,0.98965
1022.60631,1.01141
1021.89369,1.03452
1021.18107,1.03558
1020.46845,1.00567
1019.75584,0.96593
1019.04322,0.94489
1018.33060,0.95249
1017.61798,0.98144
1016.90537,1.01056
1016.19275,1.01467
1015.48013,0.99392
1014.76751,0.97519
1014.05490,0.97963
1013.34228,1.00347
1012.62966,1.02809
1011.91704,1.04352
1011.20443,1.05111
1010.49181,1.05246
1009.77919,1.05058
1009.06657,1.05211
1008.35395,1.06098
1007.64134,1.07055
1006.92872,1.06825
1006.21610,1.04841
1005.50348,1.02256
1004.79087,1.00971
1004.07825,1.01624
1003.36563,1.03661
1002.65301,1.06709
1001.94040,1.10769
1001.22778,1.14366
1000.51516,1.14015
999.80254,1.09594
999.08993,1.05207
998.37731,1.03898
997.66469,1.06209
996.95207,1.10388
996.23945,1.12959
995.52684,1.11779
994.81422,1.08486
994.10160,1.05551
993.38898,1.03865
992.67637,1.03104
991.96375,1.03181
991.25113,1.04952
990.53851,1.08226
989.82590,1.10631
989.11328,1.10020
988.40066,1.07742
987.68804,1.06926
986.97543,1.08577
986.26281,1.10977
985.55019,1.11794
984.83757,1.10339
984.12495,1.08021
983.41234,1.07139
982.69972,1.09612
981.98710,1.15629
981.27448,1.23385
980.56187,1.30104
979.84925,1.32661
979.13663,1.29363
978.42401,1.23303
977.71140,1.18945
976.99878,1.19859
976.28616,1.25356
975.57354,1.28937
974.86093,1.27298
974.14831,1.21919
973.43569,1.15864
972.72307,1.12129
972.01046,1.11867
971.29784,1.14030
970.58522,1.15647
969.87260,1.15484
969.15998,1.15562
968.44737,1.17435
967.73475,1.21499
967.02213,1.25139
966.30951,1.23695
965.59690,1.18829
964.88428,1.11985
964.17166,1.06311
963.45904,1.05219
962.74643,1.08501
962.03381,1.15883
961.32119,1.28105
960.60857,1.43148
959.89596,1.54158
959.18334,1.53022
958.47072,1.43471
957.75810,1.38125
957.04548,1.39194
956.33287,1.44735
955.62025,1.52207
954.90763,1.50838
954.19501,1.37639
953.48240,1.25538
952.76978,1.22273
952.05716,1.25839
951.34454,1.29448
950.63193,1.28076
949.91931,1.26916
949.20669,1.27088
948.49407,1.23176
947.78146,1.18669
947.06884,1.17367
946.35622,1.20309
945.64360,1.26539
944.93098,1.33545
944.21837,1.44904
943.50575,1.56307
942.79313,1.41361
942.08051,1.47476
941.36790,1.54277
940.65528,1.42240
939.94266,1.26430
939.23004,1.13156
938.51743,1.02411
937.80481,0.96740
937.09219,0.98636
936.37957,1.03609
935.66696,1.05975
934.95434,1.08877
934.24172,1.19643
933.52910,1.28790
932.81649,1.32833
932.10387,1.39757
931.39125,1.42790
930.67863,1.37948
929.96601,1.34621
929.25340,1.45451
928.54078,1.56341
927.82816,1.32705
927.11554,1.09987
926.40293,0.99459
925.69031,1.01409
924.97769,1.03652
924.26507,1.01442
923.55246,1.06115
922.83984,1.22988
922.12722,1.62033
921.41460,1.47918
920.70199,1.09167
919.98937,0.95010
919.27675,1.00026
918.56413,1.16986
917.85151,1.27377
917.13890,1.16318
916.42628,0.98719
915.71366,0.91918
915.00104,0.96386
914.28843,1.07064
913.57581,1.14208
912.86319,1.07421
912.15057,1.04906
911.43796,1.03792
910.72534,0.89847
910.01272,0.79932
909.30010,0.84389
908.58749,1.09405
907.87487,1.56368
907.16225,1.06395
906.44963,0.81610
905.73702,0.80470
905.02440,0.87281
904.31178,1.19308
903.59916,0.98626
902.88654,0.68347
902.17393,0.59281
901.46131,0.63582
900.74869,0.53453
900.03607,0.43449
899.32346,0.39005
